Freq, Coherency
49.91455078125,0.02758606581568778
49.90234375,0.030302238650717052
49.89013671875,0.032727426477062956
49.8779296875,0.03483545252624951
49.86572265625,0.03660856772294297
49.853515625,0.03802867692093083
49.841312408447266,0.039081714378004825
49.8291015625,0.0397584157858966
49.81689453125,0.040050777841969865
49.8046875,0.0399568377342373
49.792484283447266,0.03947708517961416
49.780277252197266,0.038616098158733465
49.76806640625,0.03738162691569741
49.755859375,0.03578626914619958
49.74365234375,0.03384500945627082
49.7314453125,0.03157745828703194
49.71923828125,0.02900256290141909
49.70703125,0.02614915549150387
49.69482421875,0.023041506939584126
49.6826171875,0.019709263271231858
49.67041015625,0.01618860490170336
49.658203125,0.012509424474769132
49.64599609375,0.008708554378519823
49.6337890625,0.004821104167732837
49.62158203125,8.89222695652794E-4
49.609375,-0.003055327187113095
49.59716796875,-0.006969792486033483
49.5849609375,-0.010817940922580179
49.57275390625,-0.014564066223825802
49.560546875,-0.018167614950953346
49.54833984375,-0.021598106744704127
49.5361328125,-0.024820942247887674
49.52392578125,-0.0278060517146644
49.51171875,-0.03052223299108781
49.49951171875,-0.03294439674009599
49.4873046875,-0.035049095885045574
49.47509765625,-0.03681593745169032
49.462890625,-0.03822776476720486
49.450687408447266,-0.03927094187925187
49.4384765625,-0.03993526678401105
49.42626953125,-0.04021392999342142
49.4140625,-0.04010440678275431
49.40185546875,-0.039607385575301045
49.3896484375,-0.03872838291206767
49.37744140625,-0.03747440663967752
49.365234375,-0.035858736516844875
49.35302734375,-0.03389644769497963
49.3408203125,-0.03160641441536638
49.32861328125,-0.0290095678258787
49.31640625,-0.026134147917164546
49.30419921875,-0.02300332165493471
49.2919921875,-0.01964944391725407
49.27978515625,-0.01610630657588826
49.267578125,-0.012405282894526871
49.255367279052734,-0.008585330512831255
49.243167877197266,-0.004680533525489089
49.23095703125,-7.28997360680628E-4
49.218753814697266,0.003228116416156562
49.206546783447266,0.007157830492419603
49.1943359375,0.011019047395559756
49.182132720947266,0.014772486565848963
49.169925689697266,0.018386825346001254
49.15771484375,0.021822803692385675
49.145503997802734,0.02505022378842076
49.13330078125,0.028035809693566224
49.12109375,0.030752214585785188
49.10888671875,0.03317126330340493
49.0966796875,0.035271428831453996
49.08447265625,0.03703131629470662
49.072265625,0.03843287174563825
49.06005859375,0.03946467875576055
49.0478515625,0.04011542220985835
49.03564453125,0.0403786915256451
49.0234375,0.040252180036474204
49.01123046875,0.03973673137574454
48.9990234375,0.03883762888276913
48.98681640625,0.03756275640693101
48.974609375,0.03592461612058522
48.96240234375,0.03394064670364151
48.9501953125,0.03162582223454115
48.93798828125,0.029006766319156264
48.92578125,0.02610580244060173
48.913578033447266,0.02295287135621399
48.9013671875,0.0195767349314094
48.889156341552734,0.016010606066891538
48.876953125,0.012289751496579057
48.86474609375,0.008448080442524838
48.852542877197266,0.004525030144384073
48.84033203125,5.563994525893129E-4
48.828125,-0.0034189448976493634
48.81591796875,-0.007360720647168189
48.8037109375,-0.011233931433809895
48.79150390625,-0.014999575920131097
48.779296875,-0.018619836488536424
48.76708984375,-0.022062571666932325
48.7548828125,-0.02529177724912179
48.742679595947266,-0.028277854356171455
48.73046875,-0.030992201283613935
48.71826171875,-0.03340801818263549
48.7060546875,-0.03550164591373725
48.69384765625,-0.037252773418226866
48.681640625,-0.038643919192961056
48.66943359375,-0.03966264381918645
48.6572265625,-0.04029839047738638
48.64501953125,-0.04054491913599303
48.6328125,-0.040399748911450394
48.62060546875,-0.03986418001945408
48.6083984375,-0.03894329248392001
48.59619140625,-0.03764588492235751
48.583984375,-0.03598512044145027
48.57177734375,-0.03397564797152092
48.5595703125,-0.031637377774234074
48.54736328125,-0.028993916083407956
48.53515625,-0.026068649213370182
48.52294921875,-0.02289075173004948
48.5107421875,-0.019490865257813253
48.49853515625,-0.015901769125413155
48.486328125,-0.012158123553848892
48.47412109375,-0.008296047251310846
48.4619140625,-0.004354388056494006
48.44970703125,-3.681128155833274E-4
48.4375,0.003622735835012685
48.42529296875,0.007579614185176594
48.4130859375,0.011464248444833305
48.40087890625,0.01523910179803885
48.388671875,0.018867672278930308
48.37646484375,0.022314875749999914
48.3642578125,0.025547329562553803
48.35205078125,0.02853376029949145
48.33984375,0.031245249166529012
48.32763671875,0.033656420992674296
48.3154296875,0.035741234368571274
48.30322265625,0.0374821196848587
48.291015625,0.03886081324650741
48.27880859375,0.039865307684924724
48.2666015625,0.04048438973097707
48.25439453125,0.04071245323449224
48.2421875,0.04054705072254521
48.22998046875,0.03999010636463255
48.2177734375,0.039046025355219
48.205570220947266,0.03772518712245442
48.193359375,0.036038568124439695
48.18115234375,0.034003753064645974
48.1689453125,0.03163986536277625
48.15673828125,0.028969653656220805
48.144527435302734,0.026017875598166863
48.13232421875,0.02281585016028216
48.1201171875,0.019390194610711432
48.10791015625,0.015777622043301128
48.095703125,0.01201165576634652
48.083499908447266,0.008129888688199388
48.0712890625,0.004164569919647867
48.059085845947266,1.6200536029462438E-4
48.046875,-0.00384404878902774
48.03466796875,-0.00781589384265065
48.0224609375,-0.011713180598902053
48.01025390625,-0.015495266631837016
47.998046875,-0.019131526229416326
47.98583984375,-0.022582388795941766
47.9736328125,-0.025817176529968008
47.96142578125,-0.02880201078538213
47.94921875,-0.031509327423570786
47.93701171875,-0.03391287345503845
47.9248046875,-0.03598936637741372
47.91259765625,-0.0377186408503922
47.900390625,-0.03908437591722073
47.88818359375,-0.04007220094662132
47.8759765625,-0.040673081312621935
47.86376953125,-0.04088112029912763
47.8515625,-0.04069388852654449
47.83935546875,-0.04011340256867449
47.8271484375,-0.03914516901993296
47.81494140625,-0.03779784256530436
47.802734375,-0.036086152614999686
47.79052734375,-0.034022975629927725
47.7783203125,-0.031631002460470584
47.76611328125,-0.028934781582068993
47.75390625,-0.02595604613246171
47.74169921875,-0.022726856755046175
47.7294921875,-0.01927583798454627
47.71728515625,-0.01563900336989584
47.705078125,-0.011848585555855162
47.69287109375,-0.007944160982429857
47.6806640625,-0.003960388571379392
47.66845703125,6.111389110127566E-5
47.65625,0.004083085129038406
47.64404296875,0.008068199701084432
47.6318359375,0.011976328000822314
47.619625091552734,0.015769344320323876
47.607421875,0.019410067781220428
47.59521484375,0.022863887759404795
47.5830078125,0.02609890556601188
47.57080078125,0.029081265701340273
47.55859375,0.031785409421237844
47.54638671875,0.03418089029840639
47.5341796875,0.03624746489073345
47.52197265625,0.03796284670948117
47.509765625,0.03931306725994178
47.497562408447266,0.0402832377424511
47.4853515625,0.040864594812420905
47.47314453125,0.04105069828814225
47.4609375,0.04084004613279801
47.44873046875,0.04023440654893753
47.4365234375,0.03924000421498485
47.42431640625,0.0378655725585049
47.412109375,0.0361246183090062
47.39990234375,0.034033881004862744
47.3876953125,0.031614499695062
47.37548828125,0.028887883574706084
47.36328125,0.02588120681497531
47.35107421875,0.02262479622210788
47.3388671875,0.01914611308347032
47.326656341552734,0.015483017613473852
47.314453125,0.011670137460048278
47.30224609375,0.007742253555855887
47.2900390625,0.0037400573964415634
47.27783203125,-3.0251984849379677E-4
47.265625,-0.004341628625382109
47.253421783447266,-0.008338586512159008
47.2412109375,-0.012256871532936956
47.22900390625,-0.016056525610294328
47.216796875,-0.019704823070663208
47.20458984375,-0.023160745503204846
47.1923828125,-0.02639500419414683
47.18017578125,-0.029375996331321017
47.16796875,-0.032071464018668124
47.15576171875,-0.03445949450863351
47.1435546875,-0.03651318418336837
47.13134765625,-0.03821519981356145
47.119140625,-0.03954812127725514
47.10693359375,-0.040498951054470406
47.094722747802734,-0.041058370233766135
47.08251953125,-0.04122095763145601
47.0703125,-0.04098477290731657
47.05810546875,-0.0403525387808919
47.0458984375,-0.0393297536919663
47.03369140625,-0.03792636958847529
47.021484375,-0.036155869106059974
47.00927734375,-0.034035271404948025
46.9970703125,-0.031584990702700995
46.98486328125,-0.028827482703875418
46.97265625,-0.025792763279776112
46.96044921875,-0.022505335438606416
46.9482421875,-0.01900067021502214
46.93603515625,-0.015311343116939435
46.923828125,-0.011472964923238455
46.91162109375,-0.007522646277853123
46.8994140625,-0.003500131729764215
46.88720703125,5.604729444904057E-4
46.875,0.004615120753377744
46.862789154052734,0.008627453120472982
46.8505859375,0.012556478478438313
46.83837890625,0.01636479870596235
46.826171875,0.020015858172392365
46.81396484375,0.02347434017650949
46.8017578125,0.026706720691910792
46.78955078125,0.02968282417400848
46.77734375,0.032371442722937724
46.76513671875,0.03474774545569519
46.7529296875,0.036788650556049525
46.74072265625,0.03847494101656698
46.728515625,0.039788437286482736
46.71630859375,0.04071840358751452
46.7041015625,0.04125441749917179
46.69189453125,0.04139161271230713
46.6796875,0.04112844609575772
46.66748046875,0.040467492584579816
46.6552734375,0.03941454349757301
46.64306640625,0.037981148886967256
46.630859375,0.03617881601771286
46.618656158447266,0.034025677730748057
46.6064453125,0.0315441114156017
46.59423828125,0.028756642668877508
46.58203125,0.025689095701283256
46.56982421875,0.022373481851250474
46.5576171875,0.018839191412925164
46.54541015625,0.015123130746199946
46.533203125,0.011258297199471978
46.52099609375,0.007285075000071127
46.5087890625,0.003238733755982251
46.49658203125,-8.384249712952198E-4
46.484375,-0.004908542943720915
46.47216796875,-0.008933860879067482
46.4599609375,-0.012873790193561543
46.44775390625,-0.016688709189515025
46.435546875,-0.02034465972515732
46.42333984375,-0.02380204676887336
46.4111328125,-0.02703403739357405
46.39892578125,-0.03000283210752122
46.38671875,-0.032683276199396
46.37451171875,-0.035048132517424425
46.3623046875,-0.03707443040600186
46.35009765625,-0.03874188716140498
46.337890625,-0.04003514139416432
46.32568359375,-0.04094187718431782
46.3134765625,-0.04145250513414195
46.30126953125,-0.041562378587086876
46.2890625,-0.04127004831072352
46.27685546875,-0.04057823591559313
46.2646484375,-0.0394940315376564
46.25244140625,-0.03802697179958822
46.240234375,-0.0361915015048304
46.22802734375,-0.03400620983254421
46.2158203125,-0.03149043639802927
46.20361328125,-0.028669230706587365
46.19140625,-0.025569813896993348
46.17919921875,-0.022223465746087964
46.1669921875,-0.018659878335799622
46.15478515625,-0.014914748928973046
46.142578125,-0.011025824356208138
46.13037109375,-0.007027649324040595
46.1181640625,-0.002960389582166597
46.10595703125,0.0011366114783641443
46.09375,0.0052221146108922525
46.08154296875,0.009261372999934882
46.0693359375,0.013210470453445844
46.05712890625,0.017032779939908257
46.044921875,0.02069127604133657
46.03271484375,0.024149194206541318
46.0205078125,0.027375730020714265
46.00830078125,0.030338195820278913
45.99609375,0.03300786152370983
45.98388671875,0.03535878880185621
45.9716796875,0.037367433312824695
45.95947265625,0.03901641449788502
45.947265625,0.040287530886066604
45.93505859375,0.04116908747195981
45.9228515625,0.04165234333636602
45.91064453125,0.041732893684939314
45.8984375,0.041409373733773555
45.88623046875,0.040685062059368914
45.8740234375,0.039566812013669864
45.86181640625,0.03806600236775031
45.849609375,0.03619506308506141
45.83740234375,0.03397399963957303
45.8251953125,0.0314235420229217
45.81298828125,0.028568270903637664
45.80078125,0.0254357615269578
45.78857421875,0.022054856572776955
45.7763671875,0.018462338103988386
45.76416015625,0.01468880175676067
45.751953125,0.01077051116970257
45.73974609375,0.006750049294688387
45.7275390625,0.002659981888978031
45.71533203125,-0.0014553224686565205
45.703125,-0.005557656405450478
45.69091796875,-0.009608906804164983
45.6787109375,-0.013565109482556556
45.66650390625,-0.017394166173106303
45.654296875,-0.021052975226858107
45.64208984375,-0.024511828895652562
45.629878997802734,-0.02773393696373235
45.61767578125,-0.03068773197514021
45.60546875,-0.033345074260296585
45.59326171875,-0.035680417075785634
45.5810546875,-0.0376718035578849
45.56884765625,-0.0392977240746902
45.556640625,-0.04054489816583377
45.54443359375,-0.04139945275411454
45.5322265625,-0.041853682364508246
45.52001953125,-0.04190266090828319
45.5078125,-0.04154624481018318
45.49560546875,-0.04078721327245586
45.483394622802734,-0.039633043431951065
45.47119140625,-0.038095151603296795
45.458984375,-0.03618826681072071
45.44677734375,-0.03392968322821902
45.4345703125,-0.03134402338722008
45.42236328125,-0.028450969205190038
45.41015625,-0.025283934484082126
45.39794921875,-0.02187273957770622
45.3857421875,-0.018244703360172435
45.37353515625,-0.014441874582576947
45.361328125,-0.010496670508811682
45.34912109375,-0.006450327213961125
45.3369140625,-0.002338851671209677
45.32470703125,0.00179479581114061
45.3125,0.005913809788039431
45.30029296875,0.009976670868448036
45.2880859375,0.013942480276613945
45.27587890625,0.017774422441519982
45.263671875,0.021436808421360486
45.25146484375,0.024892569431384525
45.2392578125,0.02810696796927043
45.22705078125,0.031051326703172268
45.21484375,0.03369476779326416
45.20263671875,0.036013679630897924
45.1904296875,0.03798441516727508
45.17822265625,0.039587791557341434
45.166015625,0.04080817871246516
45.15380859375,0.04163340641925223
45.1416015625,0.04205602099817039
45.12939453125,0.04207141669277085
45.1171875,0.0416793326814623
45.10498046875,0.040883845224597794
45.0927734375,0.03969192425983375
45.08056640625,0.038115238684681446
45.068359375,0.036169787463408105
45.05615234375,0.03387278581941398
45.0439453125,0.03124707701329022
45.03173828125,0.028318001888676565
45.01953125,0.025115153494850162
45.00732421875,0.021666965228156032
44.9951171875,0.018007972225616502
44.98291015625,0.014173555505330013
44.970703125,0.010202385562418271
44.95849609375,0.0061281417585847394
44.9462890625,0.001996648772227353
44.93408203125,-0.002156933657150933
44.921875,-0.006290769618191829
44.90966796875,-0.01036481556903139
44.8974609375,-0.014341148305160364
44.88525390625,-0.018176602850301673
44.873046875,-0.021838600521143038
44.86083984375,-0.025290090142753456
44.8486328125,-0.028497598144567877
44.83642578125,-0.03142996222588455
44.82421875,-0.0340587200692658
44.81201171875,-0.036357492530780806
44.7998046875,-0.038306427497156674
44.78759765625,-0.039884038431229986
44.775390625,-0.0410757871285175
44.76318359375,-0.04187002691792801
44.7509765625,-0.04225894813290837
44.73876953125,-0.04223867622359971
44.7265625,-0.04180904312738739
44.71435546875,-0.04097484318552642
44.7021484375,-0.03974273427273934
44.68994140625,-0.03812576481069022
44.677734375,-0.03613992802643376
44.66552734375,-0.033801803861865036
44.6533203125,-0.031136502067562244
44.64111328125,-0.028167653389277948
44.62890625,-0.024927602903548327
44.61669921875,-0.021442569929780306
44.6044921875,-0.017750223408423478
44.59228515625,-0.013883368086407399
44.580078125,-0.009884064093497477
44.56787109375,-0.005784730971157024
44.5556640625,-0.0016298402494350328
44.54345703125,0.0025420100307052395
44.53125,0.006690380538903103
44.51904296875,0.010776707546319174
44.5068359375,0.014759710614242662
44.49462890625,0.01859926279500004
44.482421875,0.022259755708470934
44.47021484375,0.025706972946911676
44.4580078125,0.02890475153595645
44.44580078125,0.03182347507672895
44.43359375,0.0344347701490912
44.42138671875,0.03671410832888882
44.4091796875,0.03863752162350826
44.39697265625,0.040187774690956315
44.384765625,0.04134852914365215
44.37255859375,0.04210934543332077
44.3603515625,0.04246214062633157
44.34814453125,0.042403657668181875
44.3359375,0.04193439703789351
44.32373046875,0.0410588426138696
44.3115234375,0.03978478623615421
44.29931640625,0.03812473032676
44.287109375,0.036094658127147364
44.27490234375,0.03371615371118665
44.2626953125,0.031008422556730347
44.25048828125,0.027999361472768335
44.23828125,0.024718053407331443
44.22607421875,0.021197651887325718
44.2138671875,0.017469454088558826
44.20166015625,0.013572432921570628
44.189453125,0.009541260642745079
44.17724609375,0.005418121641601661
44.1650390625,0.0012396865875415257
44.15283203125,-0.0029502966810576376
44.140625,-0.007116123611435179
44.12841796875,-0.011210913060314392
44.1162109375,-0.015199804537468702
44.10400390625,-0.01904248096853402
44.091796875,-0.022700259696004466
44.07958984375,-0.026140500564669388
44.0673828125,-0.029328322270378133
44.05517578125,-0.03223275377092232
44.04296875,-0.03482557338113264
44.03076171875,-0.03708153704978279
44.0185546875,-0.03897869519550751
44.00634765625,-0.0404980375155628
43.994140625,-0.04162592135766961
43.98193359375,-0.04235063261336004
43.9697265625,-0.0426649906512362
43.95751953125,-0.042565959267359774
43.9453125,-0.04205425202046131
43.93310546875,-0.04113475965874848
43.9208984375,-0.03981687208833665
43.90869140625,-0.03811221844738696
43.896484375,-0.036037652562176656
43.88427734375,-0.033612151104089376
43.8720703125,-0.030861047761842973
43.85986328125,-0.0278112746041731
43.84765625,-0.024489918788214885
43.83544921875,-0.02092878277843841
43.8232421875,-0.017166649987798474
43.81103515625,-0.013235614613525267
43.798828125,-0.009173540242298961
43.78662109375,-0.0050246224525808715
43.7744140625,-8.242131178745198E-4
43.76220703125,0.0033870406559625625
43.75,0.007564984501699986
43.73779296875,0.011669192341352639
43.7255859375,0.015664633988181433
43.71337890625,0.019507757386245803
43.701171875,0.02316428427935327
43.68896484375,0.026594524030625392
43.6767578125,0.029770544977636954
43.66455078125,0.03265758095740748
43.65234375,0.03522888919817292
43.64013671875,0.03745943209821772
43.6279296875,0.03932817102779441
43.61572265625,0.04081540839807226
43.603515625,0.04190778728082078
43.59130859375,0.04259355288011127
43.5791015625,0.042867018377187774
43.56689453125,0.04272498702667913
43.5546875,0.042168494514734735
43.54248046875,0.04120323227964797
43.5302734375,0.03983768265689307
43.51806640625,0.03808528095713748
43.505859375,0.03596473036303874
43.49365234375,0.03349315360030742
43.4814453125,0.030697113327843684
43.46923828125,0.027602733279286272
43.45703125,0.024238527677859147
43.44482421875,0.02063822559768147
43.4326171875,0.016839752055204556
43.42041015625,0.012873909820871506
43.408203125,0.008782046030740866
43.39599609375,0.004603819320993044
43.3837890625,3.83074446109751E-4
43.37158203125,-0.003845910770078287
43.359375,-0.008038795944963479
43.34716796875,-0.012153303772977403
43.3349609375,-0.01615425962016725
43.32275390625,-0.019995097009605653
43.310546875,-0.02364615933222391
43.29833984375,-0.027067584813834752
43.2861328125,-0.03022998020928724
43.27392578125,-0.03309766674121698
43.26171875,-0.03564627950907468
43.24951171875,-0.037849819846608665
43.2373046875,-0.039686167127202944
43.22509765625,-0.04113884037963332
43.212890625,-0.042192844330841035
43.20068359375,-0.04283766820826677
43.1884765625,-0.043067444351638264
43.17626953125,-0.0428794911066691
43.1640625,-0.042275511836536515
43.15185546875,-0.04126172271996188
43.1396484375,-0.03984704656096723
43.12744140625,-0.03804540929406265
43.115234375,-0.035874177136333577
43.10302734375,-0.03335535902264547
43.0908203125,-0.03051131674966123
43.07861328125,-0.027371751714803116
43.06640625,-0.02396319348815349
43.05419921875,-0.02032394032850149
43.0419921875,-0.01648353773387528
43.02978515625,-0.012485201585100653
43.017578125,-0.008363056427018777
43.00537109375,-0.004158593332883276
