Freq, Coherency
49.91455078125,0.07151778506719143
49.90234375,0.0725946118776537
49.89013671875,0.07365958189682156
49.8779296875,0.07471292284104335
49.86572265625,0.07575449023802268
49.853515625,0.0767844928343082
49.841312408447266,0.0778016537131432
49.8291015625,0.07880753661672754
49.81689453125,0.07980024193655963
49.8046875,0.08077995068973655
49.792484283447266,0.08174772013428798
49.780277252197266,0.08270208943263087
49.76806640625,0.08364363885764611
49.755859375,0.08457165024721902
49.74365234375,0.08548660349585352
49.7314453125,0.0863876324618112
49.71923828125,0.0872749669865099
49.70703125,0.08814843700626578
49.69482421875,0.08900792167484314
49.6826171875,0.08985358964009181
49.67041015625,0.09068432310932889
49.658203125,0.09150128518283401
49.64599609375,0.09230368463299535
49.6337890625,0.09309108848815548
49.62158203125,0.09386366728921106
49.609375,0.09462131351316808
49.59716796875,0.09536417362418449
49.5849609375,0.09609155304970383
49.57275390625,0.09680389018396554
49.560546875,0.09750050958045453
49.54833984375,0.09818159056591874
49.5361328125,0.09884700135952924
49.52392578125,0.0994969039909408
49.51171875,0.10013065547087986
49.49951171875,0.10074842832783899
49.4873046875,0.10135033877134665
49.47509765625,0.10193581534300825
49.462890625,0.10250500981713419
49.450687408447266,0.10305785774788939
49.4384765625,0.10359435137507349
49.42626953125,0.10411409852215125
49.4140625,0.10461719541186024
49.40185546875,0.10510373360574642
49.3896484375,0.10557325032674655
49.37744140625,0.10602586854955072
49.365234375,0.10646166902593612
49.35302734375,0.10688007910016187
49.3408203125,0.10728168213123755
49.32861328125,0.10766593042730427
49.31640625,0.10803291070635282
49.30419921875,0.1083827004813894
49.2919921875,0.1087149651401606
49.27978515625,0.10902990234062823
49.267578125,0.1093272148678321
49.255367279052734,0.10960705596504165
49.243167877197266,0.10986915124760066
49.23095703125,0.11011373003240713
49.218753814697266,0.11034055638291657
49.206546783447266,0.11054963246871413
49.1943359375,0.11074099174495709
49.182132720947266,0.11091443305954267
49.169925689697266,0.11107014880667898
49.15771484375,0.11120792173100141
49.145503997802734,0.11132784520605019
49.13330078125,0.11142978212908855
49.12109375,0.11151384276624932
49.10888671875,0.11157993176325498
49.0966796875,0.11162801895824812
49.08447265625,0.11165812910910138
49.072265625,0.11167022850408452
49.06005859375,0.11166432965651532
49.0478515625,0.11164041251849666
49.03564453125,0.11159851630546343
49.0234375,0.11153857769789181
49.01123046875,0.111460661051048
48.9990234375,0.11136475626019113
48.98681640625,0.11125087173910125
48.974609375,0.1111189683631815
48.96240234375,0.11096916644426677
48.9501953125,0.11080136408573174
48.93798828125,0.11061572182889053
48.92578125,0.11041219698783745
48.913578033447266,0.11019080367074505
48.9013671875,0.10995152746058773
48.889156341552734,0.10969445713414475
48.876953125,0.10941969104428109
48.86474609375,0.10912723439863446
48.852542877197266,0.10881708777420267
48.84033203125,0.10848937016333374
48.828125,0.1081439161223263
48.81591796875,0.10778121763022887
48.8037109375,0.10740076096050133
48.79150390625,0.10700288017491445
48.779296875,0.106587798044595
48.76708984375,0.10615525791618981
48.7548828125,0.1057058400487161
48.742679595947266,0.10523905755128644
48.73046875,0.10475526613475784
48.71826171875,0.10425422797358372
48.7060546875,0.10373624298735985
48.69384765625,0.10320159931241234
48.681640625,0.1026501904868511
48.66943359375,0.10208208644535524
48.6572265625,0.10149715376661485
48.64501953125,0.10089593227360608
48.6328125,0.10027805236687665
48.62060546875,0.09964409312796559
48.6083984375,0.09899390132068447
48.59619140625,0.09832732667771488
48.583984375,0.09764525975760174
48.57177734375,0.09694673869590996
48.5595703125,0.09623267745804434
48.54736328125,0.09550293152244281
48.53515625,0.09475730544249032
48.52294921875,0.09399649837202022
48.5107421875,0.0932200439599375
48.49853515625,0.09242897837169048
48.486328125,0.09162218686729981
48.47412109375,0.0908004090762022
48.4619140625,0.08996443395108708
48.44970703125,0.08911308377719375
48.4375,0.08824747644694705
48.42529296875,0.08736743517514917
48.4130859375,0.08647307464670607
48.40087890625,0.08556419494275898
48.388671875,0.08464128027891013
48.37646484375,0.08370521412247604
48.3642578125,0.08275467843655789
48.35205078125,0.08179092363605292
48.33984375,0.08081336046930651
48.32763671875,0.0798228946792732
48.3154296875,0.0788193227968458
48.30322265625,0.07780238303340976
48.291015625,0.07677344331199289
48.27880859375,0.07573105543811902
48.2666015625,0.07467659270674382
48.25439453125,0.0736094110035516
48.2421875,0.07253008246144226
48.22998046875,0.07143963633685692
48.2177734375,0.07033653826786775
48.205570220947266,0.06922259291888529
48.193359375,0.06809606987421042
48.18115234375,0.06695951838217272
48.1689453125,0.06581098946112723
48.15673828125,0.06465155085871573
48.144527435302734,0.06348193902638373
48.13232421875,0.06230161093168917
48.1201171875,0.06111102361291107
48.10791015625,0.05990981796809745
48.095703125,0.05869959227145856
48.083499908447266,0.057479027395924975
48.0712890625,0.056248112450293486
48.059085845947266,0.05500905953974565
48.046875,0.05376006217569528
48.03466796875,0.052502452330927374
48.0224609375,0.051235569516678355
48.01025390625,0.04996060678234181
47.998046875,0.0486772480242646
47.98583984375,0.04738521666982667
47.9736328125,0.04608571222906594
47.96142578125,0.044777942765602104
47.94921875,0.04346364720557652
47.93701171875,0.042140977937425925
47.9248046875,0.04081170268265694
47.91259765625,0.03947549128205667
47.900390625,0.03813205730688937
47.88818359375,0.03678318666962109
47.8759765625,0.035426983472304385
47.86376953125,0.034065243071968974
47.8515625,0.0326971361845795
47.83935546875,0.03132340450982494
47.8271484375,0.02994534898549473
47.81494140625,0.028561033004842716
47.802734375,0.027172843755890692
47.79052734375,0.025778275098625066
47.7783203125,0.024379744508932454
47.76611328125,0.022978021722279463
47.75390625,0.021571137178242317
47.74169921875,0.020161517288066425
47.7294921875,0.018747181515724094
47.71728515625,0.01733000466921244
47.705078125,0.01590912444647012
47.69287109375,0.014485880481116716
47.6806640625,0.013059917753716066
47.66845703125,0.011630934582052489
47.65625,0.010200829005822327
47.64404296875,0.008767592127586904
47.6318359375,0.007332573243589282
47.619625091552734,0.0058966785529307305
47.607421875,0.0044586667019811945
47.59521484375,0.0030208152288520307
47.5830078125,0.0015809819643608648
47.57080078125,1.4165098764241645E-4
47.55859375,-0.0012997723191865436
47.54638671875,-0.0027402096260399048
47.5341796875,-0.00418059421036502
47.52197265625,-0.005620655463784652
47.509765625,-0.007060199687240127
47.497562408447266,-0.008499079136809808
47.4853515625,-0.009937856298347607
47.47314453125,-0.011374398197383034
47.4609375,-0.012809456508738926
47.44873046875,-0.01424283790763161
47.4365234375,-0.015674272683792536
47.42431640625,-0.01710411710450522
47.412109375,-0.018531021732449072
47.39990234375,-0.019955853301707425
47.3876953125,-0.02137672101723807
47.37548828125,-0.022795619495478498
47.36328125,-0.024210662160231912
47.35107421875,-0.025622147357801838
47.3388671875,-0.027030984416746378
47.326656341552734,-0.028434603676602308
47.314453125,-0.02983422136923213
47.30224609375,-0.03122928915043674
47.2900390625,-0.032619663492548176
47.27783203125,-0.034005688101479
47.265625,-0.03538605411307862
47.253421783447266,-0.03676117038909148
47.2412109375,-0.03813049911818703
47.22900390625,-0.03949413315586004
47.216796875,-0.04085283041255626
47.20458984375,-0.04220369096418003
47.1923828125,-0.04354915168696902
47.18017578125,-0.04488742062226414
47.16796875,-0.0462187811252997
47.15576171875,-0.047543577926999224
47.1435546875,-0.04886050641814433
47.13134765625,-0.05017041811544219
47.119140625,-0.05147155882247144
47.10693359375,-0.05276575374762442
47.094722747802734,-0.05405116828478268
47.08251953125,-0.055328909996084724
47.0703125,-0.05659794641393829
47.05810546875,-0.05785719780024849
47.0458984375,-0.059108430263311126
47.03369140625,-0.06034948258549133
47.021484375,-0.061582095210575
47.00927734375,-0.06280509175728563
46.9970703125,-0.06401780801494178
46.98486328125,-0.06522097858976535
46.97265625,-0.06641300946190501
46.96044921875,-0.06759557197095645
46.9482421875,-0.06876753553234692
46.93603515625,-0.06992826408682373
46.923828125,-0.07107800507393648
46.91162109375,-0.07221660105450978
46.8994140625,-0.0733438352307
46.88720703125,-0.07445955309057277
46.875,-0.07556397899219348
46.862789154052734,-0.07665640770572928
46.8505859375,-0.077736525165542
46.83837890625,-0.07880428404677367
46.826171875,-0.07985963034204666
46.81396484375,-0.08090236255743631
46.8017578125,-0.08193273083283636
46.78955078125,-0.08294975958820477
46.77734375,-0.08395406365146761
46.76513671875,-0.08494431405999316
46.7529296875,-0.0859218979760227
46.74072265625,-0.08688587382653755
46.728515625,-0.08783534475487977
46.71630859375,-0.08877164052700749
46.7041015625,-0.08969350603665119
46.69189453125,-0.09060149796554971
46.6796875,-0.09149475633413505
46.66748046875,-0.09237350908432292
46.6552734375,-0.09323792824538145
46.64306640625,-0.09408687108604684
46.630859375,-0.09492152591743402
46.618656158447266,-0.09574115314507688
46.6064453125,-0.09654510244266
46.59423828125,-0.09733375572635133
46.58203125,-0.09810693362685813
46.56982421875,-0.09886478516908503
46.5576171875,-0.0996068836982355
46.54541015625,-0.10033254358364756
46.533203125,-0.10104277972195555
46.52099609375,-0.10173663536263722
46.5087890625,-0.1024145280413053
46.49658203125,-0.10307581434105384
46.484375,-0.10372066478898692
46.47216796875,-0.1043492006348485
46.4599609375,-0.10496083299316035
46.44775390625,-0.10555569590346718
46.435546875,-0.1061339240119008
46.42333984375,-0.10669474721131977
46.4111328125,-0.10723916167647854
46.39892578125,-0.10776579099821645
46.38671875,-0.10827559008803476
46.37451171875,-0.10876805321085434
46.3623046875,-0.10924291711647188
46.35009765625,-0.10970028735692788
46.337890625,-0.11014009783322748
46.32568359375,-0.1105624257682844
46.3134765625,-0.11096686846708943
46.30126953125,-0.11135353263412814
46.2890625,-0.11172248414281373
46.27685546875,-0.11207337516091241
46.2646484375,-0.11240628536124925
46.25244140625,-0.1127212828592097
46.240234375,-0.11301806538199119
46.22802734375,-0.11329670129162653
46.2158203125,-0.11355714833499748
46.20361328125,-0.11379944552537827
46.19140625,-0.1140234452975611
46.17919921875,-0.11422895299672019
46.1669921875,-0.11441625237584671
46.15478515625,-0.11458507893311703
46.142578125,-0.11473547424680686
46.13037109375,-0.11486746040733109
46.1181640625,-0.1149809076512085
46.10595703125,-0.11507588004186564
46.09375,-0.11515225763817406
46.08154296875,-0.11521014279005347
46.0693359375,-0.11524945420049054
46.05712890625,-0.11527017621075655
46.044921875,-0.11527231649125005
46.03271484375,-0.11525587836665395
46.0205078125,-0.11522083382236023
46.00830078125,-0.11516718916856315
45.99609375,-0.11509501189319507
45.98388671875,-0.11500419570260498
45.9716796875,-0.1148948467430947
45.95947265625,-0.11476688885969273
45.947265625,-0.11462044295341058
45.93505859375,-0.11445547658246769
45.9228515625,-0.11427201581598372
45.91064453125,-0.11406999919509404
45.8984375,-0.11384961200795889
45.88623046875,-0.11361071538138572
45.8740234375,-0.11335352658840173
45.86181640625,-0.11307799768767753
45.849609375,-0.11278404432443176
45.83740234375,-0.11247193855610836
45.8251953125,-0.11214148579979234
45.81298828125,-0.11179313080403076
45.80078125,-0.11142637952338545
45.78857421875,-0.11104155186479263
45.7763671875,-0.11063902720453427
45.76416015625,-0.11021823546503338
45.751953125,-0.1097797198530451
45.73974609375,-0.10932339416189603
45.7275390625,-0.10884912926699414
45.71533203125,-0.1083573674678985
45.703125,-0.10784780511978838
45.69091796875,-0.10732070542084311
45.6787109375,-0.10677658144594629
45.66650390625,-0.10621466440630142
45.654296875,-0.10563591919678596
45.64208984375,-0.10503952845182787
45.629878997802734,-0.10442583572646033
45.61767578125,-0.10379576400704821
45.60546875,-0.10314860352573225
45.59326171875,-0.1024846310952621
45.5810546875,-0.10180369277940958
45.56884765625,-0.10110642679408846
45.556640625,-0.1003926638755642
45.54443359375,-0.09966223990327122
45.5322265625,-0.09891582977710998
45.52001953125,-0.09815297542163853
45.5078125,-0.09737439245836602
45.49560546875,-0.09657989110461732
45.483394622802734,-0.09576936064963347
45.47119140625,-0.09494302047925761
45.458984375,-0.09410187374378746
45.44677734375,-0.09324466516453715
45.4345703125,-0.09237286963678078
45.42236328125,-0.09148490271451318
45.41015625,-0.09058264815722954
45.39794921875,-0.08966590273067333
45.3857421875,-0.08873335739484445
45.37353515625,-0.0877873582079999
45.361328125,-0.08682620488727111
45.34912109375,-0.0858511742356415
45.3369140625,-0.08486163038253407
45.32470703125,-0.08385854261393329
45.3125,-0.08284125752349288
45.30029296875,-0.0818107307651739
45.2880859375,-0.08076675033892693
45.27587890625,-0.0797094529767562
45.263671875,-0.07863860516344569
45.25146484375,-0.07755478011576193
45.2392578125,-0.07645901187016677
45.22705078125,-0.07534975815978646
45.21484375,-0.07422892948634892
45.20263671875,-0.07309494848208836
45.1904296875,-0.07194886726227821
45.17822265625,-0.07079131482504893
45.166015625,-0.06962158432056975
45.15380859375,-0.06844077626350377
45.1416015625,-0.06724859886052603
45.12939453125,-0.06604479195766762
45.1171875,-0.06483047206688128
45.10498046875,-0.0636053876995293
45.0927734375,-0.062369223424935206
45.08056640625,-0.061123142287414896
45.068359375,-0.05986688593391844
45.05615234375,-0.05860013163707291
45.0439453125,-0.05732407146839704
45.03173828125,-0.05603792710646349
45.01953125,-0.05474340922355195
45.00732421875,-0.0534386973523239
44.9951171875,-0.052125009136476566
44.98291015625,-0.05080306404978774
44.970703125,-0.04947258726667886
44.95849609375,-0.048133238890906156
44.9462890625,-0.04678681752779003
44.93408203125,-0.045431430158441345
44.921875,-0.044068869521083257
44.90966796875,-0.04269830527695713
44.8974609375,-0.04132047896986116
44.88525390625,-0.03993669677054157
44.873046875,-0.038545013486190785
44.86083984375,-0.03714673221966662
44.8486328125,-0.035743177835524075
44.83642578125,-0.0343323775543024
44.82421875,-0.03291619921657487
44.81201171875,-0.03149434727153176
44.7998046875,-0.030066461395661555
44.78759765625,-0.028633886970256765
44.775390625,-0.027195751761122204
44.76318359375,-0.025753411147175102
44.7509765625,-0.024306505837080092
44.73876953125,-0.02285472808909425
44.7265625,-0.021399426868244593
44.71435546875,-0.019940297806184212
44.7021484375,-0.01847697282444213
44.68994140625,-0.017010831274539853
44.677734375,-0.015541566282583004
44.66552734375,-0.014068807833783756
44.6533203125,-0.012593944384820303
44.64111328125,-0.011116078692740273
44.62890625,-0.009636604263152444
44.61669921875,-0.008155151729967152
44.6044921875,-0.006671408346253763
44.59228515625,-0.00518675351062465
44.580078125,-0.003700875844855145
44.56787109375,-0.0022134027955860625
44.5556640625,-7.257372577391495E-4
44.54345703125,7.62433011527139E-4
44.53125,0.0022514805280177616
44.51904296875,0.0037400007004925596
44.5068359375,0.00522889835561736
44.49462890625,0.006716788777479997
44.482421875,0.008203984643506114
44.47021484375,0.009690857205008315
44.4580078125,0.01117600356957359
44.44580078125,0.012659736070288787
44.43359375,0.014142424479852363
44.42138671875,0.015622669640888672
44.4091796875,0.017100783088353545
44.39697265625,0.01857713257826046
44.384765625,0.020050324721140347
44.37255859375,0.021521254301888195
44.3603515625,0.02298796935665481
44.34814453125,0.024452528786374536
44.3359375,0.025913546094771474
44.32373046875,0.027369646370863615
44.3115234375,0.028822873412691366
44.29931640625,0.03027185038690656
44.287109375,0.03171578803142137
44.27490234375,0.03315499109187261
44.2626953125,0.034589815374464754
44.25048828125,0.03601890589204401
44.23828125,0.03744312990466781
44.22607421875,0.038861142508285
44.2138671875,0.040273300062499635
44.20166015625,0.04167933567320452
44.189453125,0.043079058618933984
44.17724609375,0.04447275725402649
44.1650390625,0.04585966546822545
44.15283203125,0.047238481163617736
44.140625,0.048611683242320555
44.12841796875,0.0499763325987709
44.1162109375,0.0513333202468271
44.10400390625,0.05268292438727582
44.091796875,0.05402386986467652
44.07958984375,0.05535649450199646
44.0673828125,0.05668107080735425
44.05517578125,0.05799686867901357
44.04296875,0.05930265487076007
44.03076171875,0.06060026064012097
44.0185546875,0.0618879550611877
44.00634765625,0.06316601162913288
43.994140625,0.06443474166178624
43.98193359375,0.06569294539531836
43.9697265625,0.06694089032812646
43.95751953125,0.06817937004718984
43.9453125,0.06940574260922817
43.93310546875,0.07062222181152165
43.9208984375,0.0718271669808187
43.90869140625,0.07302088279188033
43.896484375,0.07420361003561507
43.88427734375,0.07537469353785156
43.8720703125,0.07653349784874157
43.85986328125,0.07768027015124764
43.84765625,0.07881528688152524
43.83544921875,0.07993747369481247
43.8232421875,0.08104707025951353
43.81103515625,0.08214392389290448
43.798828125,0.08322825371773758
43.78662109375,0.08429903350318564
43.7744140625,0.08535653497509363
43.76220703125,0.08640096852246508
43.75,0.08743175269112975
43.73779296875,0.08844792741122888
43.7255859375,0.08945091586826963
43.71337890625,0.09043975150323676
43.701171875,0.09141389903205575
43.68896484375,0.09237356762433406
43.6767578125,0.09331898482604062
43.66455078125,0.09424925441067292
43.65234375,0.09516457647886645
43.64013671875,0.09606516708382491
43.6279296875,0.09695017214365215
43.61572265625,0.09782012535503679
43.603515625,0.09867453881891285
43.59130859375,0.09951262050157801
43.5791015625,0.10033554295364627
43.56689453125,0.10114218902038101
43.5546875,0.10193276518606453
43.54248046875,0.10270742333172926
43.5302734375,0.10346572684028385
43.51806640625,0.10420726683846354
43.505859375,0.10493220430345522
43.49365234375,0.10564070625300244
43.4814453125,0.10633182754666057
43.46923828125,0.10700653401704643
43.45703125,0.10766391495307585
43.44482421875,0.1083043651570116
43.4326171875,0.10892727598990377
43.42041015625,0.1095330378767792
43.408203125,0.11012107414432314
43.39599609375,0.11069173731727422
43.3837890625,0.11124427531192317
43.37158203125,0.11177945909405033
43.359375,0.11229675787732375
43.34716796875,0.11279569967492789
43.3349609375,0.11327716794047826
43.32275390625,0.1137401188443882
43.310546875,0.11418486856287917
43.29833984375,0.11461132842054765
43.2861328125,0.1150197480644908
43.27392578125,0.1154092606331625
43.26171875,0.11578057398105118
43.24951171875,0.11613331086476185
43.2373046875,0.11646715512198104
43.22509765625,0.11678257031911599
43.212890625,0.11707923167299296
43.20068359375,0.11735687606743343
43.1884765625,0.11761588809384388
43.17626953125,0.11785599594485159
43.1640625,0.11807707417846482
43.15185546875,0.11827917518180628
43.1396484375,0.11846233316671027
43.12744140625,0.11862636959227027
43.115234375,0.11877137877533199
43.10302734375,0.11889721890362064
43.0908203125,0.11900396441716664
43.07861328125,0.11909147779113365
43.06640625,0.11915989987901775
43.05419921875,0.11920906804259811
43.0419921875,0.11923903123374383
43.02978515625,0.11924977837780938
43.017578125,0.11924129562114501
43.00537109375,0.1192135851246382
42.9931640625,0.11916662458232792
42.98095703125,0.11910045321800801
42.96875,0.1190150601126095
42.95654296875,0.11891041039904927
42.9443359375,0.11878654463170273
42.93212890625,0.11864359672891475
42.919921875,0.11848136048725204
42.90771484375,0.11829996100617461
