Freq, Coherency
49.91455078125,-0.01597435480139977
49.90234375,-0.013137614751500038
49.89013671875,-0.010260200552505361
49.8779296875,-0.007350969039844559
49.86572265625,-0.004418539141564872
49.853515625,-0.0014719383748363053
49.841312408447266,0.001478961916147109
49.8291015625,0.004427912670789146
49.81689453125,0.007363100769665236
49.8046875,0.010275590786099683
49.792484283447266,0.013158931545070893
49.780277252197266,0.01600270869175877
49.76806640625,0.01879925194397194
49.755859375,0.021538532821263463
49.74365234375,0.024212964462748985
49.7314453125,0.026813388067771206
49.71923828125,0.029334793253662696
49.70703125,0.03176573173891466
49.69482421875,0.034101601809883565
49.6826171875,0.03633507167431519
49.67041015625,0.03845692894840754
49.658203125,0.0404631661686248
49.64599609375,0.0423474396637948
49.6337890625,0.04410265261690543
49.62158203125,0.045724062118174286
49.609375,0.04720682671000728
49.59716796875,0.04854633555138285
49.5849609375,0.04973887312609852
49.57275390625,0.05077993049309225
49.560546875,0.0516667198972393
49.54833984375,0.052396573147683416
49.5361328125,0.05296717450684368
49.52392578125,0.053376921144680615
49.51171875,0.05362417326077073
49.49951171875,0.05370834959544103
49.4873046875,0.05362908366185879
49.47509765625,0.05338675898071166
49.462890625,0.05298171059012025
49.450687408447266,0.05241567926136229
49.4384765625,0.05168934982720943
49.42626953125,0.05080604025245882
49.4140625,0.0497679023768508
49.40185546875,0.04857763914912777
49.3896484375,0.04724022998250051
49.37744140625,0.04575771220986266
49.365234375,0.04413550743628425
49.35302734375,0.042379879869944535
49.3408203125,0.04049351888893303
49.32861328125,0.03848339682512831
49.31640625,0.03635723297952121
49.30419921875,0.03411829575372301
49.2919921875,0.03177491876115647
49.27978515625,0.02933509057736062
49.267578125,0.02680448768840706
49.255367279052734,0.02419186244246257
49.243167877197266,0.021505318134507925
49.23095703125,0.01875324832062368
49.218753814697266,0.015943071367168247
49.206546783447266,0.013082788738449248
49.1943359375,0.010182199994533384
49.182132720947266,0.0072505453028346364
49.169925689697266,0.00429517787964082
49.15771484375,0.0013272918298231746
49.145503997802734,-0.0016464312686963539
49.13330078125,-0.004615227430366104
49.12109375,-0.00757163650493214
49.10888671875,-0.010505737796320842
49.0966796875,-0.01340859260668564
49.08447265625,-0.016271355115115092
49.072265625,-0.01908420587189423
49.06005859375,-0.021840776420375598
49.0478515625,-0.024530605629186925
49.03564453125,-0.027146380592467028
49.0234375,-0.029681207273024056
49.01123046875,-0.03212630566533907
48.9990234375,-0.034473307571330845
48.98681640625,-0.036716884929641924
48.974609375,-0.03884923980923625
48.96240234375,-0.04086308541593285
48.9501953125,-0.04275455809069983
48.93798828125,-0.04451550526372748
48.92578125,-0.04614143470108181
48.913578033447266,-0.047626855924642046
48.9013671875,-0.04896851720276703
48.889156341552734,-0.050160896914462336
48.876953125,-0.05120066702976708
48.86474609375,-0.05208515745110143
48.852542877197266,-0.05281109254797912
48.84033203125,-0.05337662867205243
48.828125,-0.053779964032513915
48.81591796875,-0.05401942794094357
48.8037109375,-0.05409460932057573
48.79150390625,-0.05400511141187419
48.779296875,-0.053751164916562295
48.76708984375,-0.05333332457702744
48.7548828125,-0.05275337587312502
48.742679595947266,-0.05201272203843707
48.73046875,-0.051113398920018725
48.71826171875,-0.05005775578823732
48.7060546875,-0.04884978292351748
48.69384765625,-0.04749277318226629
48.681640625,-0.045991437316508024
48.66943359375,-0.04434852558717062
48.6572265625,-0.04257072764752548
48.64501953125,-0.040662864945957625
48.6328125,-0.03862997245167046
48.62060546875,-0.03648051197129939
48.6083984375,-0.03421779357700761
48.59619140625,-0.03185109951196627
48.583984375,-0.029387812409579224
48.57177734375,-0.026832554798264387
48.5595703125,-0.02419583926283405
48.54736328125,-0.021484889265434275
48.53515625,-0.018707731451429687
48.52294921875,-0.015871894345140938
48.5107421875,-0.012988003378343854
48.49853515625,-0.010063945466907665
48.486328125,-0.007108388429793467
48.47412109375,-0.004129377251159288
48.4619140625,-0.0011392585218752036
48.44970703125,0.00185732454584898
48.4375,0.004847958233883893
48.42529296875,0.007824482294049397
48.4130859375,0.010778059285634637
48.40087890625,0.01370060370568595
48.388671875,0.016582153128681304
48.37646484375,0.01941182600722372
48.3642578125,0.022185212258184994
48.35205078125,0.02489077022314091
48.33984375,0.027522154421861192
48.32763671875,0.030070358546326365
48.3154296875,0.032525800321701645
48.30322265625,0.03488464062270698
48.291015625,0.037136937510097986
48.27880859375,0.039277568525219755
48.2666015625,0.04129838462929029
48.25439453125,0.043194628534867274
48.2421875,0.04495975403232378
48.22998046875,0.04658773836620348
48.2177734375,0.04807436288634324
48.205570220947266,0.04941505809941827
48.193359375,0.05060631941093849
48.18115234375,0.051642933527899657
48.1689453125,0.05252290587202503
48.15673828125,0.05324285167969711
48.144527435302734,0.053801005790063895
48.13232421875,0.05419534053944984
48.1201171875,0.05442480145573188
48.10791015625,0.05448850017260576
48.095703125,0.05438627257196516
48.083499908447266,0.05411841516805532
48.0712890625,0.0536853853180389
48.059085845947266,0.053088992212790745
48.046875,0.05233060595272848
48.03466796875,0.05141252639093861
48.0224609375,0.05033797426397784
48.01025390625,0.04910993391499067
47.998046875,0.04773149674612656
47.98583984375,0.04620727563126222
47.9736328125,0.04454126317879874
47.96142578125,0.042739677036003586
47.94921875,0.04080818896800595
47.93701171875,0.03875113498500906
47.9248046875,0.03657635804970757
47.91259765625,0.03428874770208181
47.900390625,0.03189607499330089
47.88818359375,0.029406597321379197
47.8759765625,0.02682592157704561
47.86376953125,0.02416284489240135
47.8515625,0.0214244789075828
47.83935546875,0.018621084041607908
47.8271484375,0.015761360406865915
47.81494140625,0.012851762990915231
47.802734375,0.009903418144072256
47.79052734375,0.0069207534471109385
47.7783203125,0.003918442749445701
47.76611328125,9.045983378464103E-4
47.75390625,-0.0021139644900286373
47.74169921875,-0.005126754503667272
47.7294921875,-0.008124821666982864
47.71728515625,-0.011098912326286785
47.705078125,-0.014040992688873504
47.69287109375,-0.01693888249630932
47.6806640625,-0.019787061504505647
47.66845703125,-0.02257666848270435
47.65625,-0.0252961636763977
47.64404296875,-0.027940374382952885
47.6318359375,-0.030501033776219218
47.619625091552734,-0.0329683038041533
47.607421875,-0.03533617439530216
47.59521484375,-0.03759671101441381
47.5830078125,-0.039743375009659486
47.57080078125,-0.041769432689361126
47.55859375,-0.043669553874758106
47.54638671875,-0.045436282525947704
47.5341796875,-0.04706510643154674
47.52197265625,-0.048550902842964365
47.509765625,-0.049889221306919654
47.497562408447266,-0.051075937172661956
47.4853515625,-0.05210757971447836
47.47314453125,-0.052980668679490237
47.4609375,-0.053692202733064034
47.44873046875,-0.05424036337635913
47.4365234375,-0.05462339606265506
47.42431640625,-0.05484011996126354
47.412109375,-0.05488980149368377
47.39990234375,-0.054772139323391394
47.3876953125,-0.05448772275368079
47.37548828125,-0.05403695094884869
47.36328125,-0.0534213048080125
47.35107421875,-0.05264325900677837
47.3388671875,-0.05170358301537985
47.326656341552734,-0.050606454628613025
47.314453125,-0.04935506492652859
47.30224609375,-0.04795302631277142
47.2900390625,-0.04640457895539737
47.27783203125,-0.04471366128583488
47.265625,-0.042885970180109145
47.253421783447266,-0.04092766474518974
47.2412109375,-0.03884441460267131
47.22900390625,-0.03664218295760481
47.216796875,-0.03432588361151132
47.20458984375,-0.031906172337944516
47.1923828125,-0.02938761632003993
47.18017578125,-0.02677879712630785
47.16796875,-0.02408871474137127
47.15576171875,-0.02132333368063803
47.1435546875,-0.01849343716970449
47.13134765625,-0.015605313439758668
47.119140625,-0.012670009191169264
47.10693359375,-0.009694160239522076
47.094722747802734,-0.006688224940022561
47.08251953125,-0.00366059935390322
47.0703125,-6.21269530129208E-4
47.05810546875,0.0024195635240276303
47.0458984375,0.005455012918239462
47.03369140625,0.00847345100685618
47.021484375,0.011468036725740535
47.00927734375,0.014428446300709484
46.9970703125,0.01734666784853803
46.98486328125,0.020211729567804114
46.97265625,0.023014836600432288
46.96044921875,0.025749623686167743
46.9482421875,0.02840662307295912
46.93603515625,0.030977713319920705
46.923828125,0.033454081377096254
46.91162109375,0.035830914915371825
46.8994140625,0.03809740420231382
46.88720703125,0.040249245499278496
46.875,0.04227893729932745
46.862789154052734,0.04418075374993459
46.8505859375,0.04594798032100211
46.83837890625,0.047574816783411224
46.826171875,0.04905769557732934
46.81396484375,0.05039134388869794
46.8017578125,0.05157175779771354
46.78955078125,0.052595243998723146
46.77734375,0.053458917145569586
46.76513671875,0.054159248643872795
46.7529296875,0.05469494288599055
46.74072265625,0.05506411720528334
46.728515625,0.0552652949542718
46.71630859375,0.05529811780724387
46.7041015625,0.05516230598606432
46.69189453125,0.05485827023864755
46.6796875,0.054386914025164115
46.66748046875,0.05374959408542579
46.6552734375,0.052947912058324685
46.64306640625,0.0519852439893429
46.630859375,0.05086304848607093
46.618656158447266,0.049585730157168335
46.6064453125,0.04815658268538729
46.59423828125,0.04658123810014381
46.58203125,0.04486222831282166
46.56982421875,0.04300588072754374
46.5576171875,0.04101854807744383
46.54541015625,0.03890570493121925
46.533203125,0.03667278887831593
46.52099609375,0.03432823283953198
46.5087890625,0.03187750211004948
46.49658203125,0.02933078955941232
46.484375,0.026692041597573293
46.47216796875,0.02397114888835529
46.4599609375,0.021176391095005822
46.44775390625,0.018318429062073063
46.435546875,0.015401703401666467
46.42333984375,0.012438375418879839
46.4111328125,0.009433969506404497
46.39892578125,0.006403414861639254
46.38671875,0.003350261668644946
46.37451171875,2.860700433640057E-4
46.3623046875,-0.0027798139582900284
46.35009765625,-0.005836841608700492
46.337890625,-0.008877007372471588
46.32568359375,-0.011891981185200129
46.3134765625,-0.014870319586208859
46.30126953125,-0.017805259191828383
46.2890625,-0.020686658975555928
46.27685546875,-0.023505713291133296
46.2646484375,-0.026252743106309526
46.25244140625,-0.028921500012133585
46.240234375,-0.031502729513393044
46.22802734375,-0.03398757884486832
46.2158203125,-0.036370387538666
46.20361328125,-0.038642865163145114
46.19140625,-0.04079804865325313
46.17919921875,-0.04282856052575812
46.1669921875,-0.044729762910725425
46.15478515625,-0.04649499999908735
46.142578125,-0.048118241840567184
46.13037109375,-0.04959576939225599
46.1181640625,-0.05092237132357126
46.10595703125,-0.05209395951275667
46.09375,-0.0531068822094479
46.08154296875,-0.053958083294776506
46.0693359375,-0.05464488059886776
46.05712890625,-0.05516513440555318
46.044921875,-0.05551721254365174
46.03271484375,-0.055699991780300315
46.0205078125,-0.05571288273228926
46.00830078125,-0.05555579010287575
45.99609375,-0.05522930835401325
45.98388671875,-0.05473392742389304
45.9716796875,-0.05407184994087251
45.95947265625,-0.0532440308393866
45.947265625,-0.05225424513885899
45.93505859375,-0.05110396730126375
45.9228515625,-0.04979837426972725
45.91064453125,-0.048339464078324526
45.8984375,-0.046733158912305714
45.88623046875,-0.044983830766523535
45.8740234375,-0.043096087379482464
45.86181640625,-0.041077800872587875
45.849609375,-0.03893208954113854
45.83740234375,-0.03666774756183575
45.8251953125,-0.03429005533179559
45.81298828125,-0.03180890875248807
45.80078125,-0.029228156676283992
45.78857421875,-0.026558422280612955
45.7763671875,-0.023807037386383616
45.76416015625,-0.020982165432034423
45.751953125,-0.018091476296453662
45.73974609375,-0.015146978126044293
45.7275390625,-0.012153257253148897
45.71533203125,-0.009122693635887035
45.703125,-0.006062387460795365
45.69091796875,-0.002982740061752878
45.6787109375,1.0454833228360176E-4
45.66650390625,0.0031946557000102627
45.654296875,0.0062746456261870325
45.64208984375,0.00933644500919406
45.629878997802734,0.012372584577082313
45.61767578125,0.015369919780985829
45.60546875,0.018320924485280814
45.59326171875,0.02121694548248382
45.5810546875,0.024050007861542978
45.56884765625,0.026809344954008652
45.556640625,0.029488672421567066
45.54443359375,0.032078692411910886
45.5322265625,0.034570609734713036
45.52001953125,0.03695855121864149
45.5078125,0.039233430838105134
45.49560546875,0.04139005328045462
45.483394622802734,0.043420723161092224
45.47119140625,0.04531970092707475
45.458984375,0.04707999620527345
45.44677734375,0.048697740011826106
45.4345703125,0.05016669182022157
45.42236328125,0.05148396101863723
45.41015625,0.05264342626810498
45.39794921875,0.05364259845314141
45.3857421875,0.054478975201014614
45.37353515625,0.0551486516933161
45.361328125,0.055650421487508685
45.34912109375,0.055982315137871226
45.3369140625,0.05614356223740915
45.32470703125,0.05613337184511262
45.3125,0.0559518167507316
45.30029296875,0.055599374774422075
45.2880859375,0.05507731262559892
45.27587890625,0.05438649546358361
45.263671875,0.0535296456259025
45.25146484375,0.05250911923590818
45.2392578125,0.05132848049112734
45.22705078125,0.04999036587757747
45.21484375,0.048499308227677417
45.20263671875,0.04685970506028611
45.1904296875,0.04507657531368112
45.17822265625,0.04315532385043355
45.166015625,0.041101030245500755
45.15380859375,0.03892225839253975
45.1416015625,0.036623217613187396
45.12939453125,0.034210851908969594
45.1171875,0.03169420005482735
45.10498046875,0.02908018491732653
45.0927734375,0.026376562802395555
45.08056640625,0.023591661062942464
45.068359375,0.020734069750695167
45.05615234375,0.017812277211142005
45.0439453125,0.014834232697941917
45.03173828125,0.011811117479450026
45.01953125,0.008751222570501397
45.00732421875,0.005663648590263791
44.9951171875,0.0025568304409977058
44.98291015625,-5.575562554020956E-4
44.970703125,-0.003670982276368883
44.95849609375,-0.006774177164490511
44.9462890625,-0.009857429103774053
44.93408203125,-0.012912625402864386
44.921875,-0.015928154247242764
44.90966796875,-0.01889692249139899
44.8974609375,-0.02180877301897116
44.88525390625,-0.024652701149875382
44.873046875,-0.02742423597965256
44.86083984375,-0.030112744378603326
44.8486328125,-0.03270809132083993
44.83642578125,-0.03520618802143878
44.82421875,-0.03759740579117756
44.81201171875,-0.039873541556855845
44.7998046875,-0.042028650581035575
44.78759765625,-0.04405672417883487
44.775390625,-0.04595074686150123
44.76318359375,-0.04770423644329442
44.7509765625,-0.04931316847740275
44.73876953125,-0.05077187290521412
44.7265625,-0.0520754182300119
44.71435546875,-0.05322028346402701
44.7021484375,-0.05420333393934854
44.68994140625,-0.0550210417161711
44.677734375,-0.05567064138382006
44.66552734375,-0.05615060974619002
44.6533203125,-0.05645914591858875
44.64111328125,-0.056595259531707735
44.62890625,-0.05655853493147514
44.61669921875,-0.056349007503140314
44.6044921875,-0.05596724987715486
44.59228515625,-0.05541438051726278
44.580078125,-0.0546923563766171
44.56787109375,-0.053802771453498044
44.5556640625,-0.05274854663461376
44.54345703125,-0.05153290603325101
44.53125,-0.050159427018510734
44.51904296875,-0.04863230499606474
44.5068359375,-0.046956163042745615
44.49462890625,-0.045136080825784665
44.482421875,-0.043177655743460636
44.47021484375,-0.0410866849329731
44.4580078125,-0.03886959152342786
44.44580078125,-0.036534050545820956
44.43359375,-0.03408445338175483
44.42138671875,-0.031530873896031084
44.4091796875,-0.028881293716389207
44.39697265625,-0.02614170845756348
44.384765625,-0.02332047217983279
44.37255859375,-0.02042817464064141
44.3603515625,-0.01747276272864486
44.34814453125,-0.014463025490973587
44.3359375,-0.01140825410587137
44.32373046875,-0.008317886682485669
44.3115234375,-0.005201122147781344
44.29931640625,-0.002066483135863587
44.287109375,0.001074243833169259
44.27490234375,0.004212451100849239
44.2626953125,0.007338786454503027
44.25048828125,0.010444667863064087
44.23828125,0.013518406228933388
44.22607421875,0.016551589148036863
44.2138671875,0.019535166639394193
44.20166015625,0.022459784321353773
44.189453125,0.02531770691335872
44.17724609375,0.028098053479868663
44.1650390625,0.030794265660315637
44.15283203125,0.03339608117531532
44.140625,0.03589764535964219
44.12841796875,0.038289143212643935
44.1162109375,0.04056519820450651
44.10400390625,0.04271712366215805
44.091796875,0.04473906102923988
44.07958984375,0.04662558999095416
44.0673828125,0.04837008749352884
44.05517578125,0.04996717961880032
44.04296875,0.05141092435668426
44.03076171875,0.05269901404820885
44.0185546875,0.05382633373289754
44.00634765625,0.05478904725442277
43.994140625,0.05558491743972064
43.98193359375,0.056211054868863956
43.9697265625,0.056665353263500196
43.95751953125,0.05694680628354065
43.9453125,0.057054065357573285
43.93310546875,0.05698698108783377
43.9208984375,0.05674576156499401
43.90869140625,0.05633090644247628
43.896484375,0.055743695329115786
43.88427734375,0.05498587485711724
43.8720703125,0.054059713784628316
43.85986328125,0.05296845484990138
43.84765625,0.051714534547008785
43.83544921875,0.050302135348225585
43.8232421875,0.048736172638572606
43.81103515625,0.047020166394634126
43.798828125,0.04515922158661199
43.78662109375,0.043161108523453555
43.7744140625,0.0410297031584322
43.76220703125,0.038772239297469625
43.75,0.03639558343538388
43.73779296875,0.0339070641513903
43.7255859375,0.03131407103960239
43.71337890625,0.028624594259695525
43.701171875,0.02584583387448018
43.68896484375,0.0229893539619926
43.6767578125,0.020060666498014135
43.66455078125,0.01706874138981944
43.65234375,0.014026019865596201
43.64013671875,0.01093836546492958
43.6279296875,0.007815278648653683
43.61572265625,0.004668503380137327
43.603515625,0.001505438509399209
43.59130859375,-0.0016607783671122413
43.5791015625,-0.004825173205993981
43.56689453125,-0.00797337125722874
43.5546875,-0.011100421245331159
43.54248046875,-0.014193313617584347
43.5302734375,-0.017244759828142425
43.51806640625,-0.020243263609489495
43.505859375,-0.023180618308302994
43.49365234375,-0.026049045661126875
43.4814453125,-0.028836545356212093
43.46923828125,-0.03153871427952676
43.45703125,-0.034145154471439065
43.44482421875,-0.036646999199527346
43.4326171875,-0.03903741924047494
43.42041015625,-0.04131003424728463
43.408203125,-0.04345616521705549
43.39599609375,-0.04547072523374547
43.3837890625,-0.0473460267806428
43.37158203125,-0.04907775766504972
43.359375,-0.050659817601415726
43.34716796875,-0.05208631993524575
43.3349609375,-0.05335544254184844
43.32275390625,-0.054460746343651695
43.310546875,-0.05540019327076289
43.29833984375,-0.056170129650824255
43.2861328125,-0.05676895277226074
43.27392578125,-0.057193847486883005
43.26171875,-0.05744406339296914
43.24951171875,-0.057518584601667824
43.2373046875,-0.057417206559164415
43.22509765625,-0.05714010965086082
43.212890625,-0.05668809641250008
43.20068359375,-0.056062777574353434
43.1884765625,-0.05526552789339292
43.17626953125,-0.0542989478386526
43.1640625,-0.0531659460954036
43.15185546875,-0.05187047893521796
43.1396484375,-0.050415450966984174
43.12744140625,-0.04880514782550447
43.115234375,-0.04704558836112031
43.10302734375,-0.04514234296526441
43.0908203125,-0.04309970632167328
43.07861328125,-0.04092547873594227
43.06640625,-0.03862281953434328
43.05419921875,-0.03620395077444044
43.0419921875,-0.033672684132720856
43.02978515625,-0.031037755474225735
43.017578125,-0.02830699923604778
43.00537109375,-0.025488840030819828
42.9931640625,-0.022590839613167657
