Freq, Coherency
49.91455078125,0.15586230224732547
49.90234375,0.15575539704474214
49.89013671875,0.15564221501158457
49.8779296875,0.15552289536407196
49.86572265625,0.15539725403094556
49.853515625,0.15526538569239492
49.841312408447266,0.1551273927592817
49.8291015625,0.1549830401441728
49.81689453125,0.1548326370101365
49.8046875,0.154675971190011
49.792484283447266,0.1545130884135731
49.780277252197266,0.1543439565278896
49.76806640625,0.15416864413035772
49.755859375,0.15398719814190454
49.74365234375,0.15379949859407993
49.7314453125,0.15360577489426816
49.71923828125,0.1534057291506947
49.70703125,0.15319960064376528
49.69482421875,0.15298731539798044
49.6826171875,0.15276879688597528
49.67041015625,0.15254431181264747
49.658203125,0.15231351523126294
49.64599609375,0.1520766813919659
49.6337890625,0.1518336349994295
49.62158203125,0.15158457492214525
49.609375,0.1513294113281203
49.59716796875,0.15106805332258627
49.5849609375,0.1508007119127273
49.57275390625,0.15052718942539847
49.560546875,0.1502478191263325
49.54833984375,0.14996217211621685
49.5361328125,0.14967059233244334
49.52392578125,0.14937285466247216
49.51171875,0.1490692127128277
49.49951171875,0.1487595532663912
49.4873046875,0.14844376718372285
49.47509765625,0.14812211329338038
49.462890625,0.14779447494176737
49.450687408447266,0.1474608421178571
49.4384765625,0.14712116927506225
49.42626953125,0.1467756598017907
49.4140625,0.14642407619097825
49.40185546875,0.14606670658835696
49.3896484375,0.14570343295425348
49.37744140625,0.14533426033958055
49.365234375,0.14495905970115663
49.35302734375,0.14457828732652173
49.3408203125,0.1441913592256948
49.32861328125,0.143798585900652
49.31640625,0.14340029642115726
49.30419921875,0.14299588000746422
49.2919921875,0.14258582136448877
49.27978515625,0.14216981815559043
49.267578125,0.14174804300010135
49.255367279052734,0.14132071439886826
49.243167877197266,0.14088754334505466
49.23095703125,0.1404487579812035
49.218753814697266,0.14000419739332937
49.206546783447266,0.1395538059872962
49.1943359375,0.1390979548404826
49.182132720947266,0.13863637524679712
49.169925689697266,0.13816919153676033
49.15771484375,0.1376962433808142
49.145503997802734,0.13721768819072241
49.13330078125,0.1367338424243679
49.12109375,0.13624408774785457
49.10888671875,0.13574897130923394
49.0966796875,0.13524812841284875
49.08447265625,0.13474176806143948
49.072265625,0.13423031260723686
49.06005859375,0.1337129782161053
49.0478515625,0.13319038657530421
49.03564453125,0.13266236394222586
49.0234375,0.1321287110438595
49.01123046875,0.13158986617761498
48.9990234375,0.13104565011664615
48.98681640625,0.13049607127714494
48.974609375,0.12994094042964946
48.96240234375,0.12938071376412041
48.9501953125,0.12881496040610713
48.93798828125,0.12824416375336944
48.92578125,0.12766810884615967
48.913578033447266,0.1270867800394476
48.9013671875,0.12649987379642202
48.889156341552734,0.12590823994961417
48.876953125,0.12531134687112
48.86474609375,0.12470935614050903
48.852542877197266,0.1241022008140828
48.84033203125,0.12348980881983201
48.828125,0.12287252734873046
48.81591796875,0.12225020273078363
48.8037109375,0.12162284485996026
48.79150390625,0.12099023864169653
48.779296875,0.12035264970119396
48.76708984375,0.11971035157311033
48.7548828125,0.11906313009963264
48.742679595947266,0.11841120012481128
48.73046875,0.11775398718525551
48.71826171875,0.11709185831075493
48.7060546875,0.11642515332930815
48.69384765625,0.11575338180260221
48.681640625,0.11507735866352366
48.66943359375,0.11439604847866874
48.6572265625,0.11371000587946106
48.64501953125,0.1130195249773595
48.6328125,0.11232409791804243
48.62060546875,0.1116245682260291
48.6083984375,0.1109198645373316
48.59619140625,0.11021056094631469
48.583984375,0.10949724616312016
48.57177734375,0.10877882775376925
48.5595703125,0.10805589122888881
48.54736328125,0.10732903645526866
48.53515625,0.10659715030437344
48.52294921875,0.10586111505783442
48.5107421875,0.10512038949884692
48.49853515625,0.10437558295393706
48.486328125,0.10362642212034603
48.47412109375,0.10287265153660234
48.4619140625,0.10211518523159567
48.44970703125,0.10135286329327704
48.4375,0.10058630781048136
48.42529296875,0.09981615432486743
48.4130859375,0.09904122353601347
48.40087890625,0.09826214804799206
48.388671875,0.09747926144562845
48.37646484375,0.09669230201798269
48.3642578125,0.09590128284575242
48.35205078125,0.09510593464713996
48.33984375,0.09430659325644195
48.32763671875,0.093503600849564
48.3154296875,0.09269668890404256
48.30322265625,0.09188587089605264
48.291015625,0.09107119580707339
48.27880859375,0.09025235992291712
48.2666015625,0.08943003693649486
48.25439453125,0.08860362246589769
48.2421875,0.0877734657996896
48.22998046875,0.08694025442678045
48.2177734375,0.08610271269774666
48.205570220947266,0.08526211469368097
48.193359375,0.084417052780533
48.18115234375,0.08356901190878581
48.1689453125,0.08271741719972829
48.15673828125,0.08186197943917632
48.144527435302734,0.08100313393795848
48.13232421875,0.08014137134943082
48.1201171875,0.07927559281364513
48.10791015625,0.07840677015813415
48.095703125,0.07753461252991843
48.083499908447266,0.07665906943539873
48.0712890625,0.07578003968459097
48.059085845947266,0.07489797560394157
48.046875,0.0740125014328186
48.03466796875,0.07312411974400013
48.0224609375,0.07223225325540596
48.01025390625,0.07133798276311229
47.998046875,0.07043993935503902
47.98583984375,0.06953885864880802
47.9736328125,0.06863512588632724
47.96142578125,0.06772807714544114
47.94921875,0.0668184591307199
47.93701171875,0.06590593726474604
47.9248046875,0.06499056704073179
47.91259765625,0.06407236414643454
47.900390625,0.06315101759070768
47.88818359375,0.06222728590071245
47.8759765625,0.061300829234209916
47.86376953125,0.060371333917177014
47.8515625,0.05943919410233394
47.83935546875,0.0585048081462401
47.8271484375,0.057567862889922966
47.81494140625,0.05662837448091475
47.802734375,0.055686400163159816
47.79052734375,0.054741214291178134
47.7783203125,0.05379434599591928
47.76611328125,0.05284510271534374
47.75390625,0.05189313233030757
47.74169921875,0.05093959847851077
47.7294921875,0.049983041782680857
47.71728515625,0.04902424721185626
47.705078125,0.048063624355125366
47.69287109375,0.04710085109365494
47.6806640625,0.04613594414179444
47.66845703125,0.04516857740378492
47.65625,0.04419954749074615
47.64404296875,0.0432284976213795
47.6318359375,0.042255099731835055
47.619625091552734,0.041279850582098425
47.607421875,0.04030291682478906
47.59521484375,0.039324220670993774
47.5830078125,0.03834331628321557
47.57080078125,0.03736140246764737
47.55859375,0.036376584843771924
47.54638671875,0.03539084726916251
47.5341796875,0.03440343565135091
47.52197265625,0.033414410403585414
47.509765625,0.03242378884800484
47.497562408447266,0.03143154686622766
47.4853515625,0.030437175953615513
47.47314453125,0.029442030989907136
47.4609375,0.028445467837448606
47.44873046875,0.027447117722501295
47.4365234375,0.026448200620817278
47.42431640625,0.025447187970029535
47.412109375,0.024444902747025366
47.39990234375,0.02344177277111797
47.3876953125,0.02243746130323146
47.37548828125,0.021431596909903736
47.36328125,0.020425008107173643
47.35107421875,0.01941735695262383
47.3388671875,0.018408259861132065
47.326656341552734,0.017398265544912722
47.314453125,0.016387546426843504
47.30224609375,0.015375988687742452
47.2900390625,0.014363568196608903
47.27783203125,0.013349910796291786
47.265625,0.012335851510578767
47.253421783447266,0.011320963129217067
47.2412109375,0.0103051306604936
47.22900390625,0.009289335376953868
47.216796875,0.00827170517845822
47.20458984375,0.007254290989249693
47.1923828125,0.006236313415607117
47.18017578125,0.005217429860689414
47.16796875,0.004198479757973913
47.15576171875,0.003178681887037517
47.1435546875,0.0021589098285658306
47.13134765625,0.0011383817665612972
47.119140625,1.1834442783335635E-4
47.10693359375,-9.027627915302339E-4
47.094722747802734,-0.001924011716338778
47.08251953125,-0.002945228185363291
47.0703125,-0.003966900108955277
47.05810546875,-0.004987877724875447
47.0458984375,-0.006009723022509461
47.03369140625,-0.007031187811676313
47.021484375,-0.008052648866182288
47.00927734375,-0.009074449469610548
46.9970703125,-0.010096153821757617
46.98486328125,-0.011117326264604321
46.97265625,-0.012138310068248856
46.96044921875,-0.013159481664153478
46.9482421875,-0.014179999549854915
46.93603515625,-0.0152006125154247
46.923828125,-0.016220479507071114
46.91162109375,-0.017239976825505397
46.8994140625,-0.018259041561686645
46.88720703125,-0.01927804923357288
46.875,-0.020296160054644748
46.862789154052734,-0.021314034158289145
46.8505859375,-0.022331497452458143
46.83837890625,-0.023347451701824024
46.826171875,-0.024363537845375326
46.81396484375,-0.02537851411563567
46.8017578125,-0.026392755125184818
46.78955078125,-0.027406601105313868
46.77734375,-0.028419619033137274
46.76513671875,-0.02943097496857821
46.7529296875,-0.030442215924676917
46.74072265625,-0.031452507313720894
46.728515625,-0.03246101755350104
46.71630859375,-0.03346928927141149
46.7041015625,-0.034476490152069265
46.69189453125,-0.03548219103328733
46.6796875,-0.036486730313264375
46.66748046875,-0.03749047753634657
46.6552734375,-0.038492605288958634
46.64306640625,-0.03949345080883463
46.630859375,-0.04049338217581104
46.618656158447266,-0.04149166022556705
46.6064453125,-0.042488761664426666
46.59423828125,-0.043484119890996535
46.58203125,-0.04447801737151562
46.56982421875,-0.04547078687785172
46.5576171875,-0.046462003764171554
46.54541015625,-0.047450852716720435
46.533203125,-0.048438846123437074
46.52099609375,-0.049425167513253335
46.5087890625,-0.05040939681795173
46.49658203125,-0.051391865419600766
46.484375,-0.05237293421427189
46.47216796875,-0.0533517943083396
46.4599609375,-0.05432916351100985
46.44775390625,-0.05530423601704862
46.435546875,-0.05627737209751438
46.42333984375,-0.057248511292454084
46.4111328125,-0.05821839515023009
46.39892578125,-0.05918506915007779
46.38671875,-0.06015039747349989
46.37451171875,-0.06111358164494122
46.3623046875,-0.062074582760576154
46.35009765625,-0.06303261097884665
46.337890625,-0.0639891313671576
46.32568359375,-0.06494335248388446
46.3134765625,-0.06589449017983424
46.30126953125,-0.066843998949621
46.2890625,-0.06779109296243938
46.27685546875,-0.06873536911114983
46.2646484375,-0.06967714559505246
46.25244140625,-0.07061676767318761
46.240234375,-0.07155346039611606
46.22802734375,-0.0724875394520306
46.2158203125,-0.073419347163779
46.20361328125,-0.07434811498866774
46.19140625,-0.07527452375110362
46.17919921875,-0.07619780942549342
46.1669921875,-0.07711831344343806
46.15478515625,-0.07803634277262772
46.142578125,-0.07895114026381067
46.13037109375,-0.07986304425222233
46.1181640625,-0.08077235871856005
46.10595703125,-0.08167869339601502
46.09375,-0.08258165289679235
46.08154296875,-0.08348157123508945
46.0693359375,-0.08437874823573871
46.05712890625,-0.08527279868290386
46.044921875,-0.08616334231039362
46.03271484375,-0.0870506794907301
46.0205078125,-0.08793513480070807
46.00830078125,-0.08881597854731724
45.99609375,-0.08969350787830571
45.98388671875,-0.09056804366068459
45.9716796875,-0.09143851867930235
45.95947265625,-0.09230660804307932
45.947265625,-0.09317055889576503
45.93505859375,-0.09403136881925449
45.9228515625,-0.09488798740912681
45.91064453125,-0.09574172423668592
45.8984375,-0.0965918706855875
45.88623046875,-0.0974380653547689
45.8740234375,-0.09828092822078315
45.86181640625,-0.09911976386120533
45.849609375,-0.0999548828447913
45.83740234375,-0.10078656263288127
45.8251953125,-0.10161444536804674
45.81298828125,-0.10243785235925276
45.80078125,-0.10325804228292737
45.78857421875,-0.10407433371796011
45.7763671875,-0.10488637095543438
45.76416015625,-0.10569445475145871
45.751953125,-0.10649885327549302
45.73974609375,-0.10729890271256962
45.7275390625,-0.1080948994271969
45.71533203125,-0.10888710744017958
45.703125,-0.10967518544124984
45.69091796875,-0.11045879866238427
45.6787109375,-0.11123821185983554
45.66650390625,-0.11201370895238406
45.654296875,-0.11278464135337
45.64208984375,-0.11355129475584314
45.629878997802734,-0.11431416056991495
45.61767578125,-0.11507219756237944
45.60546875,-0.11582549724420824
45.59326171875,-0.11657497343513054
45.5810546875,-0.11732000218299472
45.56884765625,-0.11806025912145177
45.556640625,-0.11879601869460792
45.54443359375,-0.11952752429089565
45.5322265625,-0.12025446010810975
45.52001953125,-0.1209765175844027
45.5078125,-0.1216939409263931
45.49560546875,-0.12240699081485919
45.483394622802734,-0.1231150181459945
45.47119140625,-0.12381872196357215
45.458984375,-0.12451734058256274
45.44677734375,-0.1252114608623243
45.4345703125,-0.1259002364105373
45.42236328125,-0.126584990822633
45.41015625,-0.12726433961747047
45.39794921875,-0.12793854070351074
45.3857421875,-0.12860861834697765
45.37353515625,-0.12927321758052546
45.361328125,-0.12993310653659412
45.34912109375,-0.1305874806970338
45.3369140625,-0.1312375971678853
45.32470703125,-0.1318821411263077
45.3125,-0.13252161124439144
45.30029296875,-0.1331562180444146
45.2880859375,-0.13378543732750126
45.27587890625,-0.13440974316689377
45.263671875,-0.1350286196679974
45.25146484375,-0.1356425195656869
45.2392578125,-0.13625093569529947
45.22705078125,-0.13685409409770216
45.21484375,-0.1374519562048128
45.20263671875,-0.13804473802591954
45.1904296875,-0.1386321756955512
45.17822265625,-0.13921402036913497
45.166015625,-0.1397906975567401
45.15380859375,-0.14036173071746258
45.1416015625,-0.14092733215458023
45.12939453125,-0.14148768724922126
45.1171875,-0.14204255238796673
45.10498046875,-0.14259168669904482
45.0927734375,-0.14313529443606096
45.08056640625,-0.14367355350463618
45.068359375,-0.14420601897496452
45.05615234375,-0.14473309168177098
45.0439453125,-0.14525433571647456
45.03173828125,-0.14577013204561406
45.01953125,-0.14628005422381282
45.00732421875,-0.14678429208717145
44.9951171875,-0.14728301017008086
44.98291015625,-0.14777599092744334
44.970703125,-0.14826302062792335
44.95849609375,-0.14874428068840215
44.9462890625,-0.14921973990273874
44.93408203125,-0.14968956869391048
44.921875,-0.150153378255686
44.90966796875,-0.15061150734696344
44.8974609375,-0.1510637556054162
44.88525390625,-0.15150992715714556
44.873046875,-0.15195018838896157
44.86083984375,-0.15238468213282272
44.8486328125,-0.1528130488560887
44.83642578125,-0.15323561062297703
44.82421875,-0.15365201752631996
44.81201171875,-0.15406241147278982
44.7998046875,-0.15446693870088685
44.78759765625,-0.1548654170491456
44.775390625,-0.15525767845464417
44.76318359375,-0.15564385672964337
44.7509765625,-0.1560240891192425
44.73876953125,-0.156398060556092
44.7265625,-0.1567660437934264
44.71435546875,-0.1571277340473809
44.7021484375,-0.15748340294161148
44.68994140625,-0.1578327556278856
44.677734375,-0.15817591153027338
44.66552734375,-0.15851299192530932
44.6533203125,-0.1588438439866371
44.64111328125,-0.1591683285391791
44.62890625,-0.15948655666612768
44.61669921875,-0.15979864039689098
44.6044921875,-0.1601044377843867
44.59228515625,-0.16040382035345907
44.580078125,-0.16069689076649718
44.56787109375,-0.16098375172429605
44.5556640625,-0.1612642722612888
44.54345703125,-0.16153822696194356
44.53125,-0.161806033194559
44.51904296875,-0.16206746105430314
44.5068359375,-0.16232249838628968
44.49462890625,-0.16257103838892586
44.482421875,-0.16281316666434634
44.47021484375,-0.16304896703508107
44.4580078125,-0.16327824333835908
44.44580078125,-0.16350107471086664
44.43359375,-0.16371753782791185
44.42138671875,-0.16392753239342497
44.4091796875,-0.16413089121246668
44.39697265625,-0.16432792361224488
44.384765625,-0.16451845782263716
44.37255859375,-0.16470248447203875
44.3603515625,-0.16487985779510392
44.34814453125,-0.16505084735265427
44.3359375,-0.165215302778302
44.32373046875,-0.16537315424845825
44.3115234375,-0.16552446197782913
44.29931640625,-0.16566927111130844
44.287109375,-0.16580751428354687
44.27490234375,-0.16593913314248449
44.2626953125,-0.16606417823439598
44.25048828125,-0.16618268584925902
44.23828125,-0.16629459981139583
44.22607421875,-0.16639987329005074
44.2138671875,-0.16649854712021192
44.20166015625,-0.1665906134030855
44.189453125,-0.1666761004343573
44.17724609375,-0.16675496505181925
44.1650390625,-0.16682720228541564
44.15283203125,-0.16689275857840288
44.140625,-0.16695175451297176
44.12841796875,-0.1670040654789705
44.1162109375,-0.16704975393013077
44.10400390625,-0.16708878027321417
44.091796875,-0.16712115975001676
44.07958984375,-0.16714689860363996
44.0673828125,-0.1671659797651485
44.05517578125,-0.1671783971142192
44.04296875,-0.16718415695031527
44.03076171875,-0.16718325568726342
44.0185546875,-0.16717568789638548
44.00634765625,-0.16716146580534721
43.994140625,-0.16714056580651807
43.98193359375,-0.16711299542663038
43.9697265625,-0.16707876884843345
43.95751953125,-0.16703785787436215
43.9453125,-0.16699029569829438
43.93310546875,-0.16693604411746796
43.9208984375,-0.1668751465710385
43.90869140625,-0.16680758261194106
43.896484375,-0.166733323698974
43.88427734375,-0.16665239577540858
43.8720703125,-0.1665648002052599
43.85986328125,-0.1664705774159404
43.84765625,-0.16636969466447257
43.83544921875,-0.1662621122142185
43.8232421875,-0.16614791696358405
43.81103515625,-0.1660270207682021
43.798828125,-0.16589952127940413
43.78662109375,-0.16576537775296324
43.7744140625,-0.16562453500337468
43.76220703125,-0.16547704880890265
43.75,-0.1653229840603061
43.73779296875,-0.16516229107712796
43.7255859375,-0.16499490489329824
43.71337890625,-0.16482089290804122
43.701171875,-0.16464026019451228
43.68896484375,-0.16445316152190834
43.6767578125,-0.16425930880980324
43.66455078125,-0.16405885216985194
43.65234375,-0.16385188135646264
43.64013671875,-0.1636383220116288
43.6279296875,-0.1634180965814431
43.61572265625,-0.16319129331792007
43.603515625,-0.16295791940430834
43.59130859375,-0.16271807897707477
43.5791015625,-0.16247168554179248
43.56689453125,-0.16221875243148734
43.5546875,-0.16195918072883606
43.54248046875,-0.16169307822208748
43.5302734375,-0.16142056033947566
43.51806640625,-0.16114142527417566
43.505859375,-0.16085590130373606
43.49365234375,-0.16056377085506326
43.4814453125,-0.16026527599395068
43.46923828125,-0.1599603085639962
43.45703125,-0.15964876038286435
43.44482421875,-0.15933075874329367
43.4326171875,-0.15900644474678682
43.42041015625,-0.158675571524073
43.408203125,-0.1583384097905191
43.39599609375,-0.15799471032622628
43.3837890625,-0.1576447546298132
43.37158203125,-0.1572882764677115
43.359375,-0.15692556766469418
43.34716796875,-0.1565565083055961
43.3349609375,-0.15618080623676356
43.32275390625,-0.15579907180986194
43.310546875,-0.15541086675418492
43.29833984375,-0.15501666714075663
43.2861328125,-0.15461570754221668
43.27392578125,-0.1542087907968318
43.26171875,-0.15379544957158803
43.24951171875,-0.15337585913282956
43.2373046875,-0.1529503707846591
43.22509765625,-0.15251833183770555
43.212890625,-0.15208008921594438
43.20068359375,-0.1516358365150717
43.1884765625,-0.1511852363010915
43.17626953125,-0.1507286580073068
43.1640625,-0.1502657648491333
43.15185546875,-0.14979693659767274
43.1396484375,-0.14932181726592078
43.12744140625,-0.1488407965076861
43.115234375,-0.1483535196191608
43.10302734375,-0.1478603864787407
43.0908203125,-0.14736102275211443
43.07861328125,-0.14685584362584395
43.06640625,-0.1463444600702173
43.05419921875,-0.14582730845137956
43.0419921875,-0.14530399076788691
43.02978515625,-0.1447749422230499
43.017578125,-0.1442397613732589
43.00537109375,-0.14369888741018866
42.9931640625,-0.14315192175639077
42.98095703125,-0.1425993135162805
42.96875,-0.14204064346493725
42.95654296875,-0.14147615078335132
42.9443359375,-0.14090585627852675
42.93212890625,-0.14033023501259398
42.919921875,-0.1397484047348636
42.90771484375,-0.13916083645263835
