Freq, Coherency
49.91455078125,0.10537334813349161
49.90234375,0.10535739541867285
49.89013671875,0.10532045410506352
49.8779296875,0.10526255153373189
49.86572265625,0.1051836173483588
49.853515625,0.10508373544225776
49.841312408447266,0.10496293762507265
49.8291015625,0.10482106783826803
49.81689453125,0.1046584379788375
49.8046875,0.10447493715622082
49.792484283447266,0.10427041926710656
49.780277252197266,0.10404516445233465
49.76806640625,0.1037991505973344
49.755859375,0.1035322839436188
49.74365234375,0.10324481709335201
49.7314453125,0.10293683930665065
49.71923828125,0.10260804600503481
49.70703125,0.10225898476309218
49.69482421875,0.1018892024083964
49.6826171875,0.10149915726482331
49.67041015625,0.101088963790061
49.658203125,0.10065822180881459
49.64599609375,0.10020746821254094
49.6337890625,0.09973647592864401
49.62158203125,0.09924585748774438
49.609375,0.09873497812611892
49.59716796875,0.09820447807062163
49.5849609375,0.09765428479750313
49.57275390625,0.09708430247506729
49.560546875,0.09649527073961942
49.54833984375,0.09588642861580135
49.5361328125,0.0952587946753723
49.52392578125,0.09461129896496773
49.51171875,0.0939455361225807
49.49951171875,0.09326039484757721
49.4873046875,0.09255674028859899
49.47509765625,0.09183451022058324
49.462890625,0.09109377271861498
49.450687408447266,0.09033467847039256
49.4384765625,0.08955718402720854
49.42626953125,0.08876193512095712
49.4140625,0.0879487688727161
49.40185546875,0.0871175909545416
49.3896484375,0.08626947617783705
49.37744140625,0.08540333145760282
49.365234375,0.08452025592707273
49.35302734375,0.08362016930738374
49.3408203125,0.08270283779250454
49.32861328125,0.08176911827413114
49.31640625,0.08081892534401236
49.30419921875,0.07985235054565983
49.2919921875,0.07886928587855206
49.27978515625,0.0778706030767193
49.267578125,0.07685580612194098
49.255367279052734,0.07582552408677257
49.243167877197266,0.07478038552881502
49.23095703125,0.07371957717949161
49.218753814697266,0.07264443066019849
49.206546783447266,0.0715538339693807
49.1943359375,0.07044879608565842
49.182132720947266,0.06933008536095936
49.169925689697266,0.06819654520629503
49.15771484375,0.06704962490902938
49.145503997802734,0.06588866031426495
49.13330078125,0.06471454011883969
49.12109375,0.06352727698886715
49.10888671875,0.06232664502708441
49.0966796875,0.061113288743274444
49.08447265625,0.05988787284090611
49.072265625,0.05865028195127243
49.06005859375,0.05740020323370574
49.0478515625,0.05613836949709716
49.03564453125,0.05486597688267963
49.0234375,0.0535813892026977
49.01123046875,0.052285798824253896
48.9990234375,0.050980432964743166
48.98681640625,0.04966361330377907
48.974609375,0.04833656354952226
48.96240234375,0.047000075701539995
48.9501953125,0.045653290730163575
48.93798828125,0.04429767088204603
48.92578125,0.0429323464232624
48.913578033447266,0.04155902556055922
48.9013671875,0.040175746024042704
48.889156341552734,0.03878465647153969
48.876953125,0.03738580376535342
48.86474609375,0.035978713913778014
48.852542877197266,0.0345650288442516
48.84033203125,0.033143292889112115
48.828125,0.031714472189476005
48.81591796875,0.030279538320635967
48.8037109375,0.028837641379693732
48.79150390625,0.027390134705219376
48.779296875,0.025936303591105474
48.76708984375,0.024476936045229464
48.7548828125,0.02301290106020935
48.742679595947266,0.021543788594401002
48.73046875,0.020070191643404265
48.71826171875,0.018591588168816592
48.7060546875,0.017108905586561318
48.69384765625,0.01562243831918766
48.681640625,0.014133070856658742
48.66943359375,0.01263992194283681
48.6572265625,0.011143876228928947
48.64501953125,0.009645231097893099
48.6328125,0.008144804011847334
48.62060546875,0.006642449221438313
48.6083984375,0.005137796920493246
48.59619140625,0.0036317398490273755
48.583984375,0.002125173317501748
48.57177734375,6.172065213755625E-4
48.5595703125,-8.912650729951426E-4
48.54736328125,-0.0023993450295898906
48.53515625,-0.003907924813468646
48.52294921875,-0.005416107835246206
48.5107421875,-0.00692359346128859
48.49853515625,-0.008429486253712582
48.486328125,-0.009934676071706084
48.47412109375,-0.01143774760126222
48.4619140625,-0.012938848188245214
48.44970703125,-0.014438344293173862
48.4375,-0.015935342953805665
48.42529296875,-0.017428955579165926
48.4130859375,-0.01892006430063012
48.40087890625,-0.020407780384273832
48.388671875,-0.02189180651395172
48.37646484375,-0.023371262213699333
48.3642578125,-0.024847020935617282
48.35205078125,-0.02631820206578648
48.33984375,-0.027784511280907753
48.32763671875,-0.02924615958251424
48.3154296875,-0.030701269797586816
48.30322265625,-0.032151206868621975
48.291015625,-0.03359453515749418
48.27880859375,-0.03503210622377635
48.2666015625,-0.036463060419200256
48.25439453125,-0.0378871109150971
48.2421875,-0.03930397218499686
48.22998046875,-0.04071280485009413
48.2177734375,-0.04211443970354983
48.205570220947266,-0.04350760617158186
48.193359375,-0.04489331772923417
48.18115234375,-0.04626946091976592
48.1689453125,-0.047637277993808846
48.15673828125,-0.04899641690593946
48.144527435302734,-0.05034555070752057
48.13232421875,-0.05168469436219036
48.1201171875,-0.05301429491742659
48.10791015625,-0.054333667783463255
48.095703125,-0.05564203253235354
48.083499908447266,-0.05693975874880829
48.0712890625,-0.058227712218595164
48.059085845947266,-0.05950314612768022
48.046875,-0.060767336473671635
48.03466796875,-0.06201984516501181
48.0224609375,-0.06326031193533299
48.01025390625,-0.06448800384923216
47.998046875,-0.06570406160951639
47.98583984375,-0.06690691123376351
47.9736328125,-0.06809673238481219
47.96142578125,-0.06927328463104968
47.94921875,-0.07043627331628453
47.93701171875,-0.07158557751418258
47.9248046875,-0.0727204615463733
47.91259765625,-0.07384159256706904
47.900390625,-0.07494867254641445
47.88818359375,-0.07604028323106207
47.8759765625,-0.0771174512924662
47.86376953125,-0.07817952400886216
47.8515625,-0.07922664522982024
47.83935546875,-0.08025787830338331
47.8271484375,-0.08127298046826176
47.81494140625,-0.08227254761414983
47.802734375,-0.08325592432035482
47.79052734375,-0.08422338582435539
47.7783203125,-0.08517392247751582
47.76611328125,-0.08610768038180032
47.75390625,-0.08702456089909304
47.74169921875,-0.08792397869507831
47.7294921875,-0.08880676312369012
47.71728515625,-0.0896717646072543
47.705078125,-0.09051911449536024
47.69287109375,-0.09134859908737732
47.6806640625,-0.09216012998376968
47.66845703125,-0.09295349965028558
47.65625,-0.09372850769739234
47.64404296875,-0.09448507109367946
47.6318359375,-0.0952229957939206
47.619625091552734,-0.09594231524278078
47.607421875,-0.09664256426744039
47.59521484375,-0.09732363699010284
47.5830078125,-0.09798551981729081
47.57080078125,-0.09862801089529116
47.55859375,-0.09925128250864941
47.54638671875,-0.09985444680760054
47.5341796875,-0.10043830354480036
47.52197265625,-0.10100186659535149
47.509765625,-0.10154585376676152
47.497562408447266,-0.10206938939608225
47.4853515625,-0.10257320407298469
47.47314453125,-0.10305636595840129
47.4609375,-0.10351893175013359
47.44873046875,-0.10396131891349103
47.4365234375,-0.10438277882317791
47.42431640625,-0.10478384678833538
47.412109375,-0.10516398958897284
47.39990234375,-0.10552338897941387
47.3876953125,-0.10586158992925356
47.37548828125,-0.1061790208480647
47.36328125,-0.10647525576100358
47.35107421875,-0.10675033056734592
47.3388671875,-0.10700439217795044
47.326656341552734,-0.10723697547322684
47.314453125,-0.10744827110478081
47.30224609375,-0.10763819574014319
47.2900390625,-0.10780670614937043
47.27783203125,-0.10795377973292514
47.265625,-0.10807941252565481
47.253421783447266,-0.10818349035894109
47.2412109375,-0.10826602054205231
47.22900390625,-0.10832699664655332
47.216796875,-0.10836641028359724
47.20458984375,-0.10838421299120271
47.1923828125,-0.10838041716733932
47.18017578125,-0.10835500401297853
47.16796875,-0.1083079933693407
47.15576171875,-0.1082393479406423
47.1435546875,-0.10814913670536289
47.13134765625,-0.10803729791788004
47.119140625,-0.10790398639013357
47.10693359375,-0.10774902548302115
47.094722747802734,-0.10757254714025305
47.08251953125,-0.10737460550429688
47.0703125,-0.10715514511155907
47.05810546875,-0.10691435231498837
47.0458984375,-0.10665217369510009
47.03369140625,-0.10636868163562571
47.021484375,-0.10606379013684976
47.00927734375,-0.10573777860205254
46.9970703125,-0.1053904809754991
46.98486328125,-0.1050220700534117
46.97265625,-0.1046327716693962
46.96044921875,-0.10422249595211118
46.9482421875,-0.1037911850299078
46.93603515625,-0.10333905770941096
46.923828125,-0.10286638945106952
46.91162109375,-0.10237306989644449
46.8994140625,-0.10185924034023729
46.88720703125,-0.10132475904386971
46.875,-0.10076992610423356
46.862789154052734,-0.10019509870774952
46.8505859375,-0.09959983979239184
46.83837890625,-0.09898485364327793
46.826171875,-0.09834972229229304
46.81396484375,-0.09769506853745401
46.8017578125,-0.097020737236592
46.78955078125,-0.09632664589526624
46.77734375,-0.09561315761699375
46.76513671875,-0.09488070263054962
46.7529296875,-0.09412884338101961
46.74072265625,-0.0933580102436198
46.728515625,-0.09256866736718987
46.71630859375,-0.0917606264026085
46.7041015625,-0.09093379266004525
46.69189453125,-0.09008860238699033
46.6796875,-0.08922556369227674
46.66748046875,-0.08834416219695006
46.6552734375,-0.08744490616643344
46.64306640625,-0.08652833565554154
46.630859375,-0.08559390481294597
46.618656158447266,-0.08464207249368587
46.6064453125,-0.0836732679884635
46.59423828125,-0.08268817213902986
46.58203125,-0.08168559824502578
46.56982421875,-0.08066646556705077
46.5576171875,-0.07963097294721519
46.54541015625,-0.0785797408622775
46.533203125,-0.07751214435554513
46.52099609375,-0.07642880407331701
46.5087890625,-0.07532993187159723
46.49658203125,-0.07421618559666275
46.484375,-0.0730869036060779
46.47216796875,-0.07194274391939544
46.4599609375,-0.07078393074485695
46.44775390625,-0.06961115723917691
46.435546875,-0.06842372714740295
46.42333984375,-0.06722281079107073
46.4111328125,-0.06600721306390527
46.39892578125,-0.06477909122426344
46.38671875,-0.06353723960213416
46.37451171875,-0.06228238466997879
46.3623046875,-0.06101433275105209
46.35009765625,-0.05973471760716469
46.337890625,-0.05844234434012046
46.32568359375,-0.05713797028185887
46.3134765625,-0.05582237416514685
46.30126953125,-0.05449477613339173
46.2890625,-0.05315595510177076
46.27685546875,-0.05180617504940648
46.2646484375,-0.05044624133273811
46.25244140625,-0.049075348202782455
46.240234375,-0.04769382198618584
46.22802734375,-0.0463034414026659
46.2158203125,-0.044902907198121705
46.20361328125,-0.04349304321928959
46.19140625,-0.04207412810963067
46.17919921875,-0.04064700765669617
46.1669921875,-0.039210836967194435
46.15478515625,-0.03776596124280497
46.142578125,-0.03631423996553679
46.13037109375,-0.03485431596775966
46.1181640625,-0.033387050064094245
46.10595703125,-0.031912732869392856
46.09375,-0.030431729208583728
46.08154296875,-0.02894418745897161
46.0693359375,-0.027450474914973745
46.05712890625,-0.02595088777542799
46.044921875,-0.02444520215760018
46.03271484375,-0.02293535481948943
46.0205078125,-0.02141993352706323
46.00830078125,-0.019899834329451818
45.99609375,-0.018375433868511915
45.98388671875,-0.01684688557580307
45.9716796875,-0.0153151732908313
45.95947265625,-0.013778253324704155
45.947265625,-0.012239917771490789
45.93505859375,-0.010698121651668632
45.9228515625,-0.00915438855690279
45.91064453125,-0.007607271380363276
45.8984375,-0.006058756556508651
45.88623046875,-0.004508617989057605
45.8740234375,-0.0029566277425661144
45.86181640625,-0.0014047806755819066
45.849609375,1.483758064107247E-4
45.83740234375,0.0017024567350668097
45.8251953125,0.0032560780917008834
45.81298828125,0.004809391116164701
45.80078125,0.006362238173163723
45.78857421875,0.007914233390911216
45.7763671875,0.009464991156337834
45.76416015625,0.011014353835842424
45.751953125,0.012562470832776776
45.73974609375,0.01410735328102356
45.7275390625,0.015650448002607648
45.71533203125,0.01719136827269868
45.703125,0.0187287409617312
45.69091796875,0.020263321551287822
45.6787109375,0.02179313907435347
45.66650390625,0.02332015367763398
45.654296875,0.024841799504938707
45.64208984375,0.026360026057016817
45.629878997802734,0.02787334642129988
45.61767578125,0.029381098905678978
45.60546875,0.03088275162889166
45.59326171875,0.03237975991791015
45.5810546875,0.03387019488564032
45.56884765625,0.035354203621776645
45.556640625,0.03683163381852235
45.54443359375,0.03830262343715944
45.5322265625,0.039765860482591266
45.52001953125,0.0412220628201486
45.5078125,0.04266936157515872
45.49560546875,0.044109609936639475
45.483394622802734,0.04554082905724708
45.47119140625,0.04696408341575071
45.458984375,0.04837767156460611
45.44677734375,0.049782061868557576
45.4345703125,0.05117683432163191
45.42236328125,0.052562389450978325
45.41015625,0.05393721946434919
45.39794921875,0.05530166416127724
45.3857421875,0.05665604689649659
45.37353515625,0.057998893527097986
45.361328125,0.05933105971902775
45.34912109375,0.06065077117560366
45.3369140625,0.061960230595926945
45.32470703125,0.06325664950766996
45.3125,0.06454086627842157
45.30029296875,0.06581299524082214
45.2880859375,0.06707183869447463
45.27587890625,0.0683177072328076
45.263671875,0.06955071079255146
45.25146484375,0.07077016670742006
45.2392578125,0.07197494073624211
45.22705078125,0.07316657349416082
45.21484375,0.07434346418687535
45.20263671875,0.07550630311234428
45.1904296875,0.07665399270840331
45.17822265625,0.0777870935517701
45.166015625,0.07890497609369221
45.15380859375,0.08000698125129026
45.1416015625,0.08109338193595472
45.12939453125,0.08216427030393869
45.1171875,0.0832190500025382
45.10498046875,0.08425709971081553
45.0927734375,0.08527902724853766
45.08056640625,0.08628386674805663
45.068359375,0.08727172143676605
45.05615234375,0.08824281902574921
45.0439453125,0.08919656780954514
45.03173828125,0.09013277273970034
45.01953125,0.09105088337444435
45.00732421875,0.09195143638404495
44.9951171875,0.09283357945340019
44.98291015625,0.09369774159183919
44.970703125,0.09454310724460759
44.95849609375,0.09537016996434108
44.9462890625,0.09617810717254661
44.93408203125,0.0969673902464125
44.921875,0.09773753389955854
44.90966796875,0.09848837921583754
44.8974609375,0.09921977108482488
44.88525390625,0.09993128130646708
44.873046875,0.10062332415331957
44.86083984375,0.10129524257024727
44.8486328125,0.10194710834114562
44.83642578125,0.10257906467625484
44.82421875,0.10319071870562599
44.81201171875,0.10378171360625749
44.7998046875,0.10435239232915763
44.78759765625,0.1049023980702394
44.775390625,0.10543161540143717
44.76318359375,0.10593973660895084
44.7509765625,0.10642705562686229
44.73876953125,0.10689326477133212
44.7265625,0.10733826520822592
44.71435546875,0.10776179936843043
44.7021484375,0.10816424651811739
44.68994140625,0.10854507100991222
44.677734375,0.10890419622022408
44.66552734375,0.10924182801008041
44.6533203125,0.10955774705526426
44.64111328125,0.10985188433238768
44.62890625,0.11012407204087848
44.61669921875,0.11037446468172617
44.6044921875,0.1106028945142745
44.59228515625,0.11080930989665747
44.580078125,0.11099359519284747
44.56787109375,0.11115590524941485
44.5556640625,0.11129601233264368
44.54345703125,0.11141390012310895
44.53125,0.11150963201711821
44.51904296875,0.11158313187240822
44.5068359375,0.1116343788748026
44.49462890625,0.11166336280706869
44.482421875,0.11167005344968761
44.47021484375,0.11165446244655329
44.4580078125,0.11161657970177498
44.44580078125,0.11155643473236389
44.43359375,0.11147395354829129
44.42138671875,0.1113692227643707
44.4091796875,0.111242286938816
44.39697265625,0.11109306504450227
44.384765625,0.11092156330185214
44.37255859375,0.11072792827402077
44.3603515625,0.11051222651249773
44.34814453125,0.1102743246657247
44.3359375,0.11001425115073371
44.32373046875,0.10973234702560543
44.3115234375,0.10942835388478461
44.29931640625,0.10910231675278032
44.287109375,0.10875451987988347
44.27490234375,0.10838506780975839
44.2626953125,0.10799359760801705
44.25048828125,0.10758059334261605
44.23828125,0.10714599989077565
44.22607421875,0.10668992076083718
44.2138671875,0.10621239641340602
44.20166015625,0.105713738894266
44.189453125,0.10519346478849875
44.17724609375,0.1046522240763987
44.1650390625,0.10408974480494892
44.15283203125,0.1035067561843512
44.140625,0.10290247552320804
44.12841796875,0.10227775107030002
44.1162109375,0.10163240650850182
44.10400390625,0.10096636122017348
44.091796875,0.10028047727723084
44.07958984375,0.09957387034339991
44.0673828125,0.09884743068403616
44.05517578125,0.09810079559249431
44.04296875,0.09733493049915344
44.03076171875,0.09654884876069457
44.0185546875,0.09574354323718423
44.00634765625,0.09491894168508117
43.994140625,0.09407512270167251
43.98193359375,0.09321198759830426
43.9697265625,0.09233065117213804
43.95751953125,0.09142962031280472
43.9453125,0.0905111123599587
43.93310546875,0.08957359401721861
43.9208984375,0.08861863422476907
43.90869140625,0.08764500456506062
43.896484375,0.08665394030992352
43.88427734375,0.08564494929669299
43.8720703125,0.08461856752991238
43.85986328125,0.0835757734119745
43.84765625,0.08251522628078774
43.83544921875,0.0814382739250026
43.8232421875,0.08034481679458896
43.81103515625,0.07923457527196036
43.798828125,0.0781085864406853
43.78662109375,0.07696674577426722
43.7744140625,0.07580876239140817
43.76220703125,0.07463571844760714
43.75,0.07344703295948939
43.73779296875,0.07224381928795987
43.7255859375,0.07102578776249967
43.71337890625,0.06979280714232264
43.701171875,0.06854553796550449
43.68896484375,0.06728472530305454
43.6767578125,0.06601006522509226
43.66455078125,0.06472142182920985
43.65234375,0.06342000270254496
43.64013671875,0.062105493846298224
43.6279296875,0.06077775614276402
43.61572265625,0.05943750318260093
43.603515625,0.05808499903869334
43.59130859375,0.05672105062215813
43.5791015625,0.05534532839647567
43.56689453125,0.05395823777376214
43.5546875,0.05255943173728812
43.54248046875,0.051149731306059834
43.5302734375,0.04972941487175373
43.51806640625,0.04829925907351127
43.505859375,0.046859127941896006
43.49365234375,0.04540866266542789
43.4814453125,0.04394929360604015
43.46923828125,0.04248015825588373
43.45703125,0.04100212111752952
43.44482421875,0.03951547478574203
43.4326171875,0.03802110467165144
43.42041015625,0.036518648621932985
43.408203125,0.03500795359840532
43.39599609375,0.03348983696616708
43.3837890625,0.03196520244873982
43.37158203125,0.030433149773557093
43.359375,0.02889458287050342
43.34716796875,0.027350417320692186
43.3349609375,0.0257991291180277
43.32275390625,0.024243471527429245
43.310546875,0.022681916217070466
43.29833984375,0.021116004525265963
43.2861328125,0.0195441921579997
43.27392578125,0.017969269153927377
43.26171875,0.016389687868710826
43.24951171875,0.014806382875556148
43.2373046875,0.013220295444876184
43.22509765625,0.01163049018684517
43.212890625,0.010037908568804023
43.20068359375,0.008443497073219723
43.1884765625,0.0068463156855926785
43.17626953125,0.005247311082055755
43.1640625,0.0036468020126252322
43.15185546875,0.0020457392699147507
43.1396484375,4.4262549101408745E-4
43.12744140625,-0.0011604808650616623
43.115234375,-0.002763813426929211
43.10302734375,-0.004366420123635443
43.0908203125,-0.005969245044025719
43.07861328125,-0.00757070451427109
43.06640625,-0.009172372697364463
43.05419921875,-0.010771957442101755
43.0419921875,-0.012369926296475639
43.02978515625,-0.013965252978961753
43.017578125,-0.01555887672095473
43.00537109375,-0.01714984905879267
42.9931640625,-0.018737851567305137
42.98095703125,-0.020322489192385843
42.96875,-0.021903599021628247
42.95654296875,-0.023480787025074435
42.9443359375,-0.02505373716484547
42.93212890625,-0.02662205786016516
42.919921875,-0.028185587489436417
