Freq, Coherency
49.91455078125,0.09944787941880882
49.90234375,0.09894827317898165
49.89013671875,0.0984290651993131
49.8779296875,0.09789056960715523
49.86572265625,0.09733246170942855
49.853515625,0.09675505564596752
49.841312408447266,0.09615864846655603
49.8291015625,0.09554278832395874
49.81689453125,0.09490841077920545
49.8046875,0.09425520813678019
49.792484283447266,0.09358297702553456
49.780277252197266,0.0928922137272137
49.76806640625,0.0921830543063094
49.755859375,0.09145551344976088
49.74365234375,0.09070978918844212
49.7314453125,0.08994632921904756
49.71923828125,0.08916467556855424
49.70703125,0.088365595428632
49.69482421875,0.08754860973955321
49.6826171875,0.0867141874042845
49.67041015625,0.08586282835488651
49.658203125,0.08499402259256053
49.64599609375,0.08410795889824567
49.6337890625,0.08320542397991189
49.62158203125,0.08228665252088783
49.609375,0.08135109464511839
49.59716796875,0.08039929042288359
49.5849609375,0.07943142314042329
49.57275390625,0.07844767928952302
49.560546875,0.07744864663353668
49.54833984375,0.07643337195099008
49.5361328125,0.07540355976947727
49.52392578125,0.07435782791862167
49.51171875,0.0732980309156919
49.49951171875,0.07222312534572986
49.4873046875,0.0711337352195026
49.47509765625,0.07003051034133888
49.462890625,0.06891240042692452
49.450687408447266,0.06778118681932813
49.4384765625,0.06663564201747037
49.42626953125,0.06547750873353586
49.4140625,0.0643057423151375
49.40185546875,0.06312061083405732
49.3896484375,0.061923644684441524
49.37744140625,0.06071371963489373
49.365234375,0.05949154146874156
49.35302734375,0.05825783780290825
49.3408203125,0.05701143718432031
49.32861328125,0.05575393466701989
49.31640625,0.054485646924613725
49.30419921875,0.053205817800783574
49.2919921875,0.05191474464530965
49.27978515625,0.05061357718248207
49.267578125,0.04930212153463512
49.255367279052734,0.047980745729122205
49.243167877197266,0.04664931955825174
49.23095703125,0.0453086543547045
49.218753814697266,0.04395904222595029
49.206546783447266,0.042600021650487985
49.1943359375,0.04123191434909873
49.182132720947266,0.039856135863978195
49.169925689697266,0.038471741580043496
49.15771484375,0.037079060295998854
49.145503997802734,0.03567921610107296
49.13330078125,0.03427231761415194
49.12109375,0.03285739111601025
49.10888671875,0.03143613352345433
49.0966796875,0.030008331778990097
49.08447265625,0.028573765072206152
49.072265625,0.027134282624988182
49.06005859375,0.02568852991980524
49.0478515625,0.024236852067300207
49.03564453125,0.022781120027140046
49.0234375,0.02131996374697041
49.01123046875,0.019853733257611663
48.9990234375,0.0183843179590706
48.98681640625,0.016910334679714197
48.974609375,0.015432137754484225
48.96240234375,0.013951631691161485
48.9501953125,0.012466318412043757
48.93798828125,0.01097986861415413
48.92578125,0.00949029669946555
48.913578033447266,0.007998426169130842
48.9013671875,0.006504198371755954
48.889156341552734,0.005008384296076645
48.876953125,0.003512066521603268
48.86474609375,0.0020136951156967996
48.852542877197266,5.155369326088536E-4
48.84033203125,-9.839594818098487E-4
48.828125,-0.0024832449202456773
48.81591796875,-0.003981826483671133
48.8037109375,-0.005481115711334511
48.79150390625,-0.006979181696512519
48.779296875,-0.008476771974122038
48.76708984375,-0.009972549541025905
48.7548828125,-0.0114666704744962
48.742679595947266,-0.01295851844245273
48.73046875,-0.014449047168648163
48.71826171875,-0.01593671481215504
48.7060546875,-0.017422136793018853
48.69384765625,-0.018903986523767072
48.681640625,-0.02038241923859833
48.66943359375,-0.021857282641300355
48.6572265625,-0.023328726949042585
48.64501953125,-0.024795437755116074
48.6328125,-0.02625814605458338
48.62060546875,-0.027715476461127545
48.6083984375,-0.029167788153996767
48.59619140625,-0.030615227785250297
48.583984375,-0.032055933572221244
48.57177734375,-0.033491762728577706
48.5595703125,-0.03492086139541108
48.54736328125,-0.036343380405503334
48.53515625,-0.03775966388935688
48.52294921875,-0.039168378692446555
48.5107421875,-0.04057022613727721
48.49853515625,-0.04196340381856892
48.486328125,-0.043349707119030315
48.47412109375,-0.04472782229885136
48.4619140625,-0.046096461491154
48.44970703125,-0.047457388205811434
48.4375,-0.04880884268276918
48.42529296875,-0.05015096861886709
48.4130859375,-0.05148408825233947
48.40087890625,-0.05280694569824066
48.388671875,-0.05412019873018516
48.37646484375,-0.055422611406581807
48.3642578125,-0.05671450630087152
48.35205078125,-0.05799600875098045
48.33984375,-0.059266412157071256
48.32763671875,-0.060525027482320665
48.3154296875,-0.06177198955906146
48.30322265625,-0.06300759543763372
48.291015625,-0.06423062273844843
48.27880859375,-0.0654413749987319
48.2666015625,-0.06663996763636107
48.25439453125,-0.0678257378670033
48.2421875,-0.06899804321033819
48.22998046875,-0.07015701009324185
48.2177734375,-0.07130291263932077
48.205570220947266,-0.0724347119635827
48.193359375,-0.0735528423671515
48.18115234375,-0.07465637758533156
48.1689453125,-0.0757459265291245
48.15673828125,-0.07682083201769581
48.144527435302734,-0.07788042320852415
48.13232421875,-0.07892508310536007
48.1201171875,-0.07995478866261513
48.10791015625,-0.08096900662811314
48.095703125,-0.08196714198530396
48.083499908447266,-0.08294914158368556
48.0712890625,-0.08391600124984941
48.059085845947266,-0.08486598242229204
48.046875,-0.0857997074396515
48.03466796875,-0.08671684916378317
48.0224609375,-0.0876171428527942
48.01025390625,-0.08849975705228662
47.998046875,-0.08936582600249433
47.98583984375,-0.09021451217531347
47.9736328125,-0.09104564398518517
47.96142578125,-0.09185905325843202
47.94921875,-0.09265426456796838
47.93701171875,-0.09343147788928736
47.9248046875,-0.09419046239924886
47.91259765625,-0.0949313901824983
47.900390625,-0.09565380707362255
47.88818359375,-0.09635729175760542
47.8759765625,-0.09704225690466113
47.86376953125,-0.09770828109878525
47.8515625,-0.09835522831447419
47.83935546875,-0.09898296624686301
47.8271484375,-0.09959112984342011
47.81494140625,-0.10018007502405803
47.802734375,-0.10074921561783223
47.79052734375,-0.10129890974851684
47.7783203125,-0.10182876352391554
47.76611328125,-0.10233849637714694
47.75390625,-0.10282840565773961
47.74169921875,-0.10329800277470512
47.7294921875,-0.1037475612036772
47.71728515625,-0.10417679764869353
47.705078125,-0.10458562234398713
47.69287109375,-0.10497380018302549
47.6806640625,-0.1053415562251841
47.66845703125,-0.10568865529220388
47.65625,-0.10601489888536132
47.64404296875,-0.10632047524704945
47.6318359375,-0.10660518581280033
47.619625091552734,-0.10686894765628999
47.607421875,-0.1071117678436632
47.59521484375,-0.10733344528775414
47.5830078125,-0.10753412756683214
47.57080078125,-0.10771361120896675
47.55859375,-0.10787210704272243
47.54638671875,-0.10800921797101723
47.5341796875,-0.10812514539979269
47.52197265625,-0.1082197694457385
47.509765625,-0.10829314075443629
47.497562408447266,-0.108345184928791
47.4853515625,-0.10837592472797447
47.47314453125,-0.1083853100490333
47.4609375,-0.10837335529969534
47.44873046875,-0.10834004785706451
47.4365234375,-0.1082854150586616
47.42431640625,-0.10820938880130258
47.412109375,-0.10811204877340068
47.39990234375,-0.10799338588208723
47.3876953125,-0.10785347745351954
47.37548828125,-0.10769223494542633
47.36328125,-0.10750973566540543
47.35107421875,-0.10730609468984709
47.3388671875,-0.10708101072433716
47.326656341552734,-0.10683495479459054
47.314453125,-0.10656785507564734
47.30224609375,-0.1062796128750338
47.2900390625,-0.10597048538676986
47.27783203125,-0.10564016520939742
47.265625,-0.10528905970314355
47.253421783447266,-0.10491723994099257
47.2412109375,-0.10452457712932992
47.22900390625,-0.1041113561284706
47.216796875,-0.10367702872259674
47.20458984375,-0.1032226626783259
47.1923828125,-0.10274766828526717
47.18017578125,-0.10225230924088576
47.16796875,-0.101736702533945
47.15576171875,-0.10120068027026441
47.1435546875,-0.1006450133147066
47.13134765625,-0.10006915908337063
47.119140625,-0.09947346987704371
47.10693359375,-0.09885800174281496
47.094722747802734,-0.09822295296168813
47.08251953125,-0.0975680483615534
47.0703125,-0.09689403127784509
47.05810546875,-0.09620102796685485
47.0458984375,-0.09548837105860987
47.03369140625,-0.09475725424015803
47.021484375,-0.09400699423034628
47.00927734375,-0.09323774821290656
46.9970703125,-0.09245019783740534
46.98486328125,-0.09164422904788726
46.97265625,-0.09082003495528036
46.96044921875,-0.08997769551166108
46.9482421875,-0.08911741021412176
46.93603515625,-0.08823903521347506
46.923828125,-0.08734370701130338
46.91162109375,-0.08643058738860089
46.8994140625,-0.08550024606907407
46.88720703125,-0.08455277418016544
46.875,-0.08358805876097675
46.862789154052734,-0.08260704023744239
46.8505859375,-0.08160897331856876
46.83837890625,-0.08059539961793276
46.826171875,-0.07956528542001243
46.81396484375,-0.07851927619504627
46.8017578125,-0.0774574753128076
46.78955078125,-0.07637975908039386
46.77734375,-0.07528708526650181
46.76513671875,-0.07417934536006368
46.7529296875,-0.07305664929796404
46.74072265625,-0.07191886777525176
46.728515625,-0.07076747014220372
46.71630859375,-0.06960096818184303
46.7041015625,-0.06842085132277538
46.69189453125,-0.06722652729536978
46.6796875,-0.06601953792592997
46.66748046875,-0.06479832357032371
46.6552734375,-0.06356444486739417
46.64306640625,-0.06231777787210056
46.630859375,-0.061058447414892976
46.618656158447266,-0.059786203654324535
46.6064453125,-0.05850250360149099
46.59423828125,-0.057206892892076394
46.58203125,-0.055899609954885535
46.56982421875,-0.05458050911399552
46.5576171875,-0.053250300123975906
46.54541015625,-0.05191024200430732
46.533203125,-0.05055860428660754
46.52099609375,-0.04919711782917569
46.5087890625,-0.04782510086936024
46.49658203125,-0.04644432269539264
46.484375,-0.045053000627847964
46.47216796875,-0.04365242883633453
46.4599609375,-0.042243372626462786
46.44775390625,-0.04082568846295058
46.435546875,-0.03939902227491149
46.42333984375,-0.03796527961411404
46.4111328125,-0.03652203889066737
46.39892578125,-0.035072358015739345
46.38671875,-0.033615315702974075
46.37451171875,-0.03215075439958907
46.3623046875,-0.03067946652204223
46.35009765625,-0.029202839867495844
46.337890625,-0.02771896909790723
46.32568359375,-0.026229239969768822
46.3134765625,-0.02473505686184146
46.30126953125,-0.023234492039805342
46.2890625,-0.02172894814869953
46.27685546875,-0.020218720551937092
46.2646484375,-0.01870523188108605
46.25244140625,-0.017186529834937625
46.240234375,-0.015664035725694817
46.22802734375,-0.014139182946972972
46.2158203125,-0.012610004791378507
46.20361328125,-0.011077933646997514
46.19140625,-0.00954327065746045
46.17919921875,-0.008006924726604435
46.1669921875,-0.00646852004112908
46.15478515625,-0.004927895126185821
46.142578125,-0.0033864970110073266
46.13037109375,-0.0018434115999735848
46.1181640625,-2.995511867659179E-4
46.10595703125,0.0012442430513015747
46.09375,0.0027881314793519454
46.08154296875,0.004332492299300588
46.0693359375,0.005876411423454574
46.05712890625,0.007419584485612887
46.044921875,0.008961707185314612
46.03271484375,0.010501331815594072
46.0205078125,0.012040442797175269
46.00830078125,0.013577591734070188
45.99609375,0.015111869752868018
45.98388671875,0.016644185724986642
45.9716796875,0.018173027445422242
45.95947265625,0.019699902248547015
45.947265625,0.02122209859631112
45.93505859375,0.02274112103037176
45.9228515625,0.02425494400700878
45.91064453125,0.025765517934001617
45.8984375,0.027271417484635234
45.88623046875,0.028772344650530718
45.8740234375,0.03026800232298396
45.86181640625,0.031757507262479015
45.849609375,0.033241740887106894
45.83740234375,0.03471981979265402
45.8251953125,0.036191451054319215
45.81298828125,0.03765576603337951
45.80078125,0.0391136308902658
45.78857421875,0.04056417682282465
45.7763671875,0.04200654795212809
45.76416015625,0.04344159718996705
45.751953125,0.04486846849529396
45.73974609375,0.046286320276527966
45.7275390625,0.04769599067348131
45.71533203125,0.04909663793405986
45.703125,0.05048798361625823
45.69091796875,0.05186975103548509
45.6787109375,0.05324112574189225
45.66650390625,0.054602917937493306
45.654296875,0.055953781646501236
45.64208984375,0.057294979166189364
45.629878997802734,0.058625185782693906
45.61767578125,0.059943372995768886
45.60546875,0.06124999591791735
45.59326171875,0.06254541536601026
45.5810546875,0.06382885463832076
45.56884765625,0.06509955823990937
45.556640625,0.06635827603363721
45.54443359375,0.06760425237536499
45.5322265625,0.06883766481940615
45.52001953125,0.07005740917608456
45.5078125,0.07126319913225578
45.49560546875,0.07245574572455736
45.483394622802734,0.07363423216496258
45.47119140625,0.07479872014491534
45.458984375,0.07594862500660952
45.44677734375,0.0770839234465678
45.4345703125,0.07820389415781807
45.42236328125,0.07930963019433189
45.41015625,0.08039916459330718
45.39794921875,0.0814735281902152
45.3857421875,0.08253258736768695
45.37353515625,0.08357483423694657
45.361328125,0.08460130319379697
45.34912109375,0.0856113258174337
45.3369140625,0.08660518227647641
45.32470703125,0.08758145797867244
45.3125,0.08854112241864458
45.30029296875,0.08948391779597407
45.2880859375,0.09040863641107365
45.27587890625,0.09131615238226423
45.263671875,0.09220591350649537
45.25146484375,0.09307803969115332
45.2392578125,0.09393141441068527
45.22705078125,0.09476684484954466
45.21484375,0.09558378294150043
45.20263671875,0.09638213935195734
45.1904296875,0.09716171291589859
45.17822265625,0.09792260612202483
45.166015625,0.0986641348011103
45.15380859375,0.09938613419121405
45.1416015625,0.10008926801521004
45.12939453125,0.10077261461770232
45.1171875,0.10143650922537886
45.10498046875,0.10208010381794734
45.0927734375,0.10270400866356504
45.08056640625,0.10330804381880687
45.068359375,0.10389143841489808
45.05615234375,0.10445493855032921
45.0439453125,0.104997801461352
45.03173828125,0.10552011403958475
45.01953125,0.10602174469550678
45.00732421875,0.10650263599785924
44.9951171875,0.10696281983781086
44.98291015625,0.10740187984744513
44.970703125,0.10781986828390085
44.95849609375,0.10821673623377762
44.9462890625,0.10859236248022958
44.93408203125,0.1089467024317541
44.921875,0.10927977438106812
44.90966796875,0.10959127524196895
44.8974609375,0.10988135437445952
44.88525390625,0.11014964535043054
44.873046875,0.11039648789619438
44.86083984375,0.11062154560028384
44.8486328125,0.1108248487227936
44.83642578125,0.11100637030483719
44.82421875,0.11116611028447691
44.81201171875,0.11130391416721366
44.7998046875,0.11141982105275111
44.78759765625,0.11151382397251802
44.775390625,0.1115858330118315
44.76318359375,0.11163586261260952
44.7509765625,0.11166390156657516
44.73876953125,0.11166993370838062
44.7265625,0.1116539382110234
44.71435546875,0.11161594855861662
44.7021484375,0.11155590974748096
44.68994140625,0.11147384759189873
44.677734375,0.11136985761264417
44.66552734375,0.1112437997781091
44.6533203125,0.11109576195481016
44.64111328125,0.11092583018949609
44.62890625,0.11073399377790477
44.61669921875,0.11052018835741086
44.6044921875,0.11028460716771027
44.59228515625,0.11002712677021809
44.580078125,0.10974798451218476
44.56787109375,0.10944711749238052
44.5556640625,0.10912447564911684
44.54345703125,0.10878035755544357
44.53125,0.10841455346571381
44.51904296875,0.10802739948898374
44.5068359375,0.10761869673874616
44.49462890625,0.10718865080109796
44.482421875,0.10673752280850171
44.47021484375,0.10626520767914982
44.4580078125,0.10577163802517996
44.44580078125,0.10525727306198797
44.43359375,0.10472180239443488
44.42138671875,0.10416552469363277
44.4091796875,0.10358897976585021
44.39697265625,0.10299141913772111
44.384765625,0.1023733754863546
44.37255859375,0.10173496500526236
44.3603515625,0.10107657176080968
44.34814453125,0.10039780027860605
44.3359375,0.09969928108328865
44.32373046875,0.0989809479059466
44.3115234375,0.09824260935443925
44.29931640625,0.09748468513915734
44.287109375,0.09670731927548998
44.27490234375,0.09591097772449737
44.2626953125,0.09509518359177867
44.25048828125,0.09426040291535501
44.23828125,0.09340679502680477
44.22607421875,0.09253517726914785
44.2138671875,0.0916444216064108
44.20166015625,0.09073570123261851
44.189453125,0.08980847298140394
44.17724609375,0.0888632696707731
44.1650390625,0.0879002726798915
44.15283203125,0.08692005724140077
44.140625,0.08592164092830244
44.12841796875,0.08490679045966014
44.1162109375,0.08387450984180164
44.10400390625,0.08282539501001329
44.091796875,0.08176007182788245
44.07958984375,0.08067790488058355
44.0673828125,0.07957952014059305
44.05517578125,0.07846512967158427
44.04296875,0.0773353976822435
44.03076171875,0.0761896508598844
44.0185546875,0.07502855352988948
44.00634765625,0.07385279731834261
43.994140625,0.07266126517454545
43.98193359375,0.07145547714044571
43.9697265625,0.07023573952161573
43.95751953125,0.06900083637318295
43.9453125,0.06775295484527334
43.93310546875,0.06649086801778754
43.9208984375,0.0652158164562375
43.90869140625,0.06392704146718046
43.896484375,0.06262529402402708
43.88427734375,0.06131036800445849
43.8720703125,0.059983433114882224
43.85986328125,0.05864482335030883
43.84765625,0.057293742748648624
43.83544921875,0.05593098024949188
43.8232421875,0.05455734559272185
43.81103515625,0.05317153876629757
43.798828125,0.05177533300113474
43.78662109375,0.050369077852960305
43.7744140625,0.04895193776888597
43.76220703125,0.04752424426030686
43.75,0.04608726839245446
43.73779296875,0.04464136873816215
43.7255859375,0.043185686592958676
43.71337890625,0.04172107514465003
43.701171875,0.04024730701664199
43.68896484375,0.038766280830328056
43.6767578125,0.03727660669708894
43.66455078125,0.03577863697827512
43.65234375,0.03427430115378045
43.64013671875,0.03276218722528789
43.6279296875,0.03124265425194634
43.61572265625,0.029717056129373233
43.603515625,0.028185164904902537
43.59130859375,0.026647352969386442
43.5791015625,0.02510377796595595
43.56689453125,0.02355542650367535
43.5546875,0.022000839272813825
43.54248046875,0.020442011906911986
43.5302734375,0.0188787110176724
43.51806640625,0.0173106979641877
43.505859375,0.015739991193605644
43.49365234375,0.01416456738161194
43.4814453125,0.012587073383933936
43.46923828125,0.011006027470173858
43.45703125,0.009421811438282674
43.44482421875,0.007835838100832325
43.4326171875,0.006247943713485975
43.42041015625,0.004658292274632731
43.408203125,0.0030667176609049038
43.39599609375,0.0014746396041406045
43.3837890625,-1.1810666549643918E-4
43.37158203125,-0.001711356279680357
43.359375,-0.003304720698639734
43.34716796875,-0.004897811255579091
43.3349609375,-0.00649164441292768
43.32275390625,-0.008082839764075879
43.310546875,-0.009674073959736244
43.29833984375,-0.011262672289726614
43.2861328125,-0.01285130530658868
43.27392578125,-0.01443605116281758
43.26171875,-0.01601957602781635
43.24951171875,-0.017599840530170788
43.2373046875,-0.019177009391010424
43.22509765625,-0.02075091824864984
43.212890625,-0.02232172722535575
43.20068359375,-0.023887960552577338
43.1884765625,-0.025450001307397718
43.17626953125,-0.027008007569248826
43.1640625,-0.028561126762491715
43.15185546875,-0.030107904722334825
43.1396484375,-0.031650331304636646
43.12744140625,-0.033186417306447766
43.115234375,-0.03471692603329786
43.10302734375,-0.03624041903781551
43.0908203125,-0.03775726952172287
43.07861328125,-0.03926703466623669
43.06640625,-0.040770668117325166
43.05419921875,-0.04226550088779112
43.0419921875,-0.04375249353423699
43.02978515625,-0.04523121158433046
43.017578125,-0.04670200900527406
43.00537109375,-0.048163501692029716
42.9931640625,-0.04961641494243007
42.98095703125,-0.05105938253670116
42.96875,-0.052493255318307425
42.95654296875,-0.05391668344391732
42.9443359375,-0.0553303729220254
42.93212890625,-0.056732994117815225
