Freq, Coherency
49.91455078125,0.03075819224977483
49.90234375,0.028495776227185868
49.89013671875,0.026180566972946514
49.8779296875,0.023816812560800295
49.86572265625,0.021407047431460748
49.853515625,0.01895668873468536
49.841312408447266,0.016471082293782267
49.8291015625,0.013952532873337083
49.81689453125,0.011409080156130813
49.8046875,0.008842535242573897
49.792484283447266,0.006258758951555465
49.780277252197266,0.003662869154162428
49.76806640625,0.001059715701487635
49.755859375,-0.001546281116618676
49.74365234375,-0.004150032000044566
49.7314453125,-0.006745646519838403
49.71923828125,-0.009331490855315271
49.70703125,-0.011898355046162896
49.69482421875,-0.014444640346472859
49.6826171875,-0.01696456460734321
49.67041015625,-0.01945243541205978
49.658203125,-0.021905564686602895
49.64599609375,-0.024319449653614125
49.6337890625,-0.026687390043238408
49.62158203125,-0.029005143319822665
49.609375,-0.03127020016781117
49.59716796875,-0.033477388136709224
49.5849609375,-0.03562352342794745
49.57275390625,-0.03770264247755065
49.560546875,-0.0397110474807179
49.54833984375,-0.04164655726608889
49.5361328125,-0.04350400942303443
49.52392578125,-0.045282854262207954
49.51171875,-0.046975333844199864
49.49951171875,-0.04858114443520274
49.4873046875,-0.0500965775229203
49.47509765625,-0.051518856623196434
49.462890625,-0.0528451407390071
49.450687408447266,-0.05407264492568416
49.4384765625,-0.055200147973967856
49.42626953125,-0.05622447614901475
49.4140625,-0.057143940290534365
49.40185546875,-0.05795685701695702
49.3896484375,-0.058661423749012724
49.37744140625,-0.05925709862289374
49.365234375,-0.05974190324989972
49.35302734375,-0.06011507263144252
49.3408203125,-0.06037617696623273
49.32861328125,-0.060524572212781576
49.31640625,-0.06055982742164063
49.30419921875,-0.06048196898123044
49.2919921875,-0.06029096611249443
49.27978515625,-0.0599873200201491
49.267578125,-0.0595715092285245
49.255367279052734,-0.059044332151815544
49.243167877197266,-0.058406499967897776
49.23095703125,-0.05765957324969231
49.218753814697266,-0.05680494395599992
49.206546783447266,-0.05584325177236106
49.1943359375,-0.054777479209340105
49.182132720947266,-0.053609378849480915
49.169925689697266,-0.052339872331481886
49.15771484375,-0.05097292026045292
49.145503997802734,-0.04951039755573011
49.13330078125,-0.04795465055044862
49.12109375,-0.04630912240499891
49.10888671875,-0.04457665202097224
49.0966796875,-0.0427596157178554
49.08447265625,-0.04086302861566439
49.072265625,-0.03889040744254853
49.06005859375,-0.03684291771261211
49.0478515625,-0.034726981276636495
49.03564453125,-0.03254550110625677
49.0234375,-0.030302782908330304
49.01123046875,-0.028002880562078017
48.9990234375,-0.025649942943562546
48.98681640625,-0.023248618597313003
48.974609375,-0.02080213678143167
48.96240234375,-0.018318256842557633
48.9501953125,-0.015797547261710922
48.93798828125,-0.013247532027986208
48.92578125,-0.010672266101560433
48.913578033447266,-0.00807604398526925
48.9013671875,-0.0054636318152604234
48.889156341552734,-0.002841386233601718
48.876953125,-2.125787650128729E-4
48.86474609375,0.0024169155492036235
48.852542877197266,0.00504292523570511
48.84033203125,0.00765957939073195
48.828125,0.010263974375750573
48.81591796875,0.012847648228884435
48.8037109375,0.015410143390361534
48.79150390625,0.017943325798170436
48.779296875,0.020443618073943536
48.76708984375,0.022907443712665707
48.7548828125,0.02532701638155894
48.742679595947266,0.027701171825224358
48.73046875,0.03002363105117413
48.71826171875,0.032291785729693434
48.7060546875,0.034499136145346894
48.69384765625,0.03664353345053401
48.681640625,0.03871821141859756
48.66943359375,0.04072278919549346
48.6572265625,0.042650858430345155
48.64501953125,0.044500536232702316
48.6328125,0.046266676048307
48.62060546875,0.04794690282092986
48.6083984375,0.049537865769532764
48.59619140625,0.051037322865185586
48.583984375,0.05244055900131873
48.57177734375,0.05374730413643361
48.5595703125,0.05495333779262947
48.54736328125,0.05605705294720641
48.53515625,0.05705666443711701
48.52294921875,0.0579494404877399
48.5107421875,0.05873449113472409
48.49853515625,0.059409368054694905
48.486328125,0.05997392515943126
48.47412109375,0.06042628093961217
48.4619140625,0.060765857875197164
48.44970703125,0.06099195456065238
48.4375,0.06110416702379299
48.42529296875,0.061102152022709195
48.4130859375,0.06098596102963844
48.40087890625,0.060755655575251255
48.388671875,0.060411845031438954
48.37646484375,0.0599550357322402
48.3642578125,0.05938582182635181
48.35205078125,0.05870572984735614
48.33984375,0.05791538895831349
48.32763671875,0.057016961729081425
48.3154296875,0.05601170736844422
48.30322265625,0.0549010654919879
48.291015625,0.05368853356494095
48.27880859375,0.05237429801707626
48.2666015625,0.050962435165968184
48.25439453125,0.04945428478889106
48.2421875,0.04785325893503285
48.22998046875,0.04616379722245356
48.2177734375,0.04438617301189409
48.205570220947266,0.04252567316670468
48.193359375,0.040584880356307314
48.18115234375,0.0385682323813453
48.1689453125,0.03647815548049566
48.15673828125,0.03432031226173228
48.144527435302734,0.03209696229733028
48.13232421875,0.02981354768562146
48.1201171875,0.02747416059533278
48.10791015625,0.02508174781477446
48.095703125,0.022642787928819613
48.083499908447266,0.020160678726914176
48.0712890625,0.017639823880366348
48.059085845947266,0.015085777880404131
48.046875,0.012502296626324556
48.03466796875,0.009895736537268208
48.0224609375,0.007268829092597278
48.01025390625,0.004628700741826295
47.998046875,0.001978198129004686
47.98583984375,-6.754837173959787E-4
47.9736328125,-0.003329780703274799
47.96142578125,-0.005978530293187718
47.94921875,-0.008614549187444854
47.93701171875,-0.011237372377183651
47.9248046875,-0.0138388277264191
47.91259765625,-0.01641610145141826
47.900390625,-0.018962191439250868
47.88818359375,-0.021473643398694103
47.8759765625,-0.02394657945428246
47.86376953125,-0.026375364571214536
47.8515625,-0.028755445159867367
47.83935546875,-0.031081319319861387
47.8271484375,-0.03334984016434329
47.81494140625,-0.03555748053237779
47.802734375,-0.03769835458644353
47.79052734375,-0.0397709384086959
47.7783203125,-0.04176795601199092
47.76611328125,-0.04368754769973639
47.75390625,-0.04552670178942195
47.74169921875,-0.04728050722088044
47.7294921875,-0.04894704873358201
47.71728515625,-0.05052178618086957
47.705078125,-0.052003173862156644
47.69287109375,-0.05338715713523344
47.6806640625,-0.05467221683824476
47.66845703125,-0.055855357589708034
47.65625,-0.05693393489583602
47.64404296875,-0.057906342330099295
47.6318359375,-0.058771165402640387
47.619625091552734,-0.05952623602988755
47.607421875,-0.060170291708726856
47.59521484375,-0.06070173357873165
47.5830078125,-0.06112001820470915
47.57080078125,-0.06142400414165923
47.55859375,-0.061613385760387294
47.54638671875,-0.06168747287212007
47.5341796875,-0.06164632024719311
47.52197265625,-0.0614899479968884
47.509765625,-0.061218495137304894
47.497562408447266,-0.060832616126119454
47.4853515625,-0.060332590705366326
47.47314453125,-0.059719736808889076
47.4609375,-0.05899534211888949
47.44873046875,-0.05816015978340558
47.4365234375,-0.05721638185704698
47.42431640625,-0.05616499907680517
47.412109375,-0.055008301578663925
47.39990234375,-0.05374901722119662
47.3876953125,-0.05238889383660194
47.37548828125,-0.050929919613014324
47.36328125,-0.049375315483827356
47.35107421875,-0.04772863289190977
47.3388671875,-0.045990921967430855
47.326656341552734,-0.0441675728329181
47.314453125,-0.04226159915420122
47.30224609375,-0.04027551164937153
47.2900390625,-0.03821441222616701
47.27783203125,-0.03608050651952756
47.265625,-0.03387856661808777
47.253421783447266,-0.031613405538966785
47.2412109375,-0.02928803632593599
47.22900390625,-0.026908042622268404
47.216796875,-0.02447520400151937
47.20458984375,-0.021997896640002047
47.1923828125,-0.019477832018892822
47.18017578125,-0.016920682635980393
47.16796875,-0.014332250103744075
47.15576171875,-0.011714281888773504
47.1435546875,-0.009075798630094788
47.13134765625,-0.0064186142650571425
47.119140625,-0.003749789267254153
47.10693359375,-0.001072201872617406
47.094722747802734,0.0016078623174554578
47.08251953125,0.004286073155721298
47.0703125,0.006957943699189085
47.05810546875,0.009615243212897596
47.0458984375,0.012256307519156368
47.03369140625,0.014874109915231306
47.021484375,0.017465818108550517
47.00927734375,0.020025538541168442
46.9970703125,0.022548475719626968
46.98486328125,0.02502990168512933
46.97265625,0.027464212343997024
46.96044921875,0.029848767237183712
46.9482421875,0.03217812186894644
46.93603515625,0.03444891646239538
46.923828125,0.03665398031800833
46.91162109375,0.038791954702250775
46.8994140625,0.040857137301920705
46.88720703125,0.04284727941023834
46.875,0.04475780840177979
46.862789154052734,0.04658497905074908
46.8505859375,0.04832580607983185
46.83837890625,0.04997664808532156
46.826171875,0.051534358921061445
46.81396484375,0.052995538560254386
46.8017578125,0.05435858411273904
46.78955078125,0.05562032378846178
46.77734375,0.05677837129592223
46.76513671875,0.057830590052269794
46.7529296875,0.05877486550740363
46.74072265625,0.059609465794655744
46.728515625,0.0603325375787965
46.71630859375,0.06094327086089173
46.7041015625,0.0614403844820307
46.69189453125,0.061822470040588516
46.6796875,0.06208895050631438
46.66748046875,0.0622395077327217
46.6552734375,0.06227370138563532
46.64306640625,0.06219142891929256
46.630859375,0.06199282280024845
46.618656158447266,0.06167819085135892
46.6064453125,0.06124818558273137
46.59423828125,0.060703452049482465
46.58203125,0.060045071882212794
46.56982421875,0.05927421881979634
46.5576171875,0.05839209323521226
46.54541015625,0.05740112684458621
46.533203125,0.05630191394756775
46.52099609375,0.05509734825802517
46.5087890625,0.053789111706410216
46.49658203125,0.0523807904621852
46.484375,0.050873243519424266
46.47216796875,0.049270481707433346
46.4599609375,0.04757475481331208
46.44775390625,0.045790284712780224
46.435546875,0.04391940833384586
46.42333984375,0.04196623391416926
46.4111328125,0.03993244528286124
46.39892578125,0.03782551961829379
46.38671875,0.0356459743656822
46.37451171875,0.033399668883926155
46.3623046875,0.031089773903868433
46.35009765625,0.028722041030002234
46.337890625,0.02629901377095225
46.32568359375,0.023826699111706835
46.3134765625,0.021309596176985513
46.30126953125,0.01875096633286222
46.2890625,0.01615716148179453
46.27685546875,0.013531853955961515
46.2646484375,0.010881581163449096
46.25244140625,0.008209200693442576
46.240234375,0.005521357872060261
46.22802734375,0.0028229315535548086
46.2158203125,1.1744067981042964E-4
46.20361328125,-0.002588989863740571
46.19140625,-0.005290687306167601
46.17919921875,-0.007982754272288046
46.1669921875,-0.010661667886480672
46.15478515625,-0.013321346131619753
46.142578125,-0.01595577200751009
46.13037109375,-0.018562091648878593
46.1181640625,-0.02113379818511331
46.10595703125,-0.023667232078906676
46.09375,-0.026156083879099984
46.08154296875,-0.02859765187043463
46.0693359375,-0.030986362556436914
46.05712890625,-0.03331773249521288
46.044921875,-0.03558738432991885
46.03271484375,-0.03779019816237652
46.0205078125,-0.03992377543539158
46.00830078125,-0.04198322170636452
45.99609375,-0.043963897147120214
45.98388671875,-0.04586364006493013
45.9716796875,-0.047677376465672494
45.95947265625,-0.049403407464873504
45.947265625,-0.051036893638872524
45.93505859375,-0.05257527013517793
45.9228515625,-0.054015808127629815
45.91064453125,-0.055355915422926845
45.8984375,-0.05659280550464228
45.88623046875,-0.05772413646856147
45.8740234375,-0.058747763279044775
45.86181640625,-0.05966140271724567
45.849609375,-0.06046403785478695
45.83740234375,-0.061153754284116874
45.8251953125,-0.06172923123606954
45.81298828125,-0.062189202479990824
45.80078125,-0.06253313988644774
45.78857421875,-0.0627601641381078
45.7763671875,-0.06286979896610172
45.76416015625,-0.06286187927915346
45.751953125,-0.0627363253410151
45.73974609375,-0.06249347104160512
45.7275390625,-0.06213354732375593
45.71533203125,-0.061657268940018314
45.703125,-0.061065349157925795
45.69091796875,-0.06035913155365345
45.6787109375,-0.05954013183445705
45.66650390625,-0.05860920481726552
45.654296875,-0.057568796129351285
45.64208984375,-0.0564197293724435
45.629878997802734,-0.05516462810274913
45.61767578125,-0.05380678031294895
45.60546875,-0.05234807917020962
45.59326171875,-0.050790117037964745
45.5810546875,-0.04913704212829146
45.56884765625,-0.04739228817914171
45.556640625,-0.04555729222327173
45.54443359375,-0.043636963075507476
45.5322265625,-0.04163446633083136
45.52001953125,-0.03955304815646384
45.5078125,-0.03739838671292205
45.49560546875,-0.035172329808648206
45.483394622802734,-0.03287953251156195
45.47119140625,-0.030524711052123794
45.458984375,-0.028112747751708838
45.44677734375,-0.025647126662546108
45.4345703125,-0.023133852000993934
45.42236328125,-0.0205740267197735
45.41015625,-0.01797762040177896
45.39794921875,-0.01534630212333686
45.3857421875,-0.012684057712081703
45.37353515625,-0.009998860688753674
45.361328125,-0.007293774356075236
45.34912109375,-0.004574768188336706
45.3369140625,-0.0018449267167136923
45.32470703125,8.875684625825426E-4
45.3125,0.003619606710832281
45.30029296875,0.00634622826928672
45.2880859375,0.00906002992752266
45.27587890625,0.011759298491781752
45.263671875,0.014436686103276449
45.25146484375,0.01708838396488163
45.2392578125,0.0197071988479276
45.22705078125,0.022291471926349907
45.21484375,0.024833724131810057
45.20263671875,0.02733063543156939
45.1904296875,0.02977763409306908
45.17822265625,0.03216955686178521
45.166015625,0.034501391991568126
45.15380859375,0.03676892859638713
45.1416015625,0.03896916246210626
45.12939453125,0.041096576051412724
45.1171875,0.04314812782574488
45.10498046875,0.045118706089295094
45.0927734375,0.04700574052029188
45.08056640625,0.04880573339531726
45.068359375,0.05051419940643727
45.05615234375,0.05212891149384993
45.0439453125,0.05364685741526694
45.03173828125,0.055064793968842264
45.01953125,0.056379540939035425
45.00732421875,0.05758964769575916
44.9951171875,0.05869204398788345
44.98291015625,0.05968513457140346
44.970703125,0.06056644358489584
44.95849609375,0.061334986952411685
44.9462890625,0.06198868947494487
44.93408203125,0.06252670416702365
44.921875,0.06294795419198414
44.90966796875,0.06325148443106218
44.8974609375,0.0634366944690141
44.88525390625,0.06350320238874486
44.873046875,0.06345090370490003
44.86083984375,0.06327981401038255
44.8486328125,0.06299035865008279
44.83642578125,0.06258281833206668
44.82421875,0.06205801450576056
44.81201171875,0.06141717328394812
44.7998046875,0.060661139742866105
44.78759765625,0.05979118638024379
44.775390625,0.05880906812489421
44.76318359375,0.05771704540240978
44.7509765625,0.05651626951969049
44.73876953125,0.05520936804910779
44.7265625,0.053798758160115666
44.71435546875,0.05228731583165078
44.7021484375,0.05067733129464483
44.68994140625,0.048972038343066224
44.677734375,0.04717533022164795
44.66552734375,0.045289125720512934
44.6533203125,0.043317622775011104
44.64111328125,0.04126448828510433
44.62890625,0.03913439910437432
44.61669921875,0.036929638698490766
44.6044921875,0.034655139935087294
44.59228515625,0.03231514114928353
44.580078125,0.029914415380489272
44.56787109375,0.027456627705506637
44.5556640625,0.024946764118903456
44.54345703125,0.022390526714456935
44.53125,0.019790668468032947
44.51904296875,0.01715244553511046
44.5068359375,0.014481976380627514
44.49462890625,0.011783659444625285
44.482421875,0.00906361604899694
44.47021484375,0.006324163429647229
44.4580078125,0.0035727308741866685
44.44580078125,8.149388318709818E-4
44.43359375,-0.001946230561081823
44.42138671875,-0.004705143183199809
44.4091796875,-0.007454305451681949
44.39697265625,-0.010191363356241493
44.384765625,-0.012910713310637003
44.37255859375,-0.015606032864546567
44.3603515625,-0.01827183957356994
44.34814453125,-0.020905831085323193
44.3359375,-0.0235008202471968
44.32373046875,-0.026051539052627425
44.3115234375,-0.02855577464871717
44.29931640625,-0.0310066798105148
44.287109375,-0.033400756236845935
44.27490234375,-0.03573151855308966
44.2626953125,-0.03799747783107916
44.25048828125,-0.04019241855507914
44.23828125,-0.04231320129268094
44.22607421875,-0.044354088469810586
44.2138671875,-0.04631376950067511
44.20166015625,-0.048186125093488755
44.189453125,-0.04996955680796795
44.17724609375,-0.05166031541113929
44.1650390625,-0.05325479586978732
44.15283203125,-0.05474908918930506
44.140625,-0.0561427534602486
44.12841796875,-0.05743032588960782
44.1162109375,-0.05861153439859863
44.10400390625,-0.0596830756793922
44.091796875,-0.06064303936422413
44.07958984375,-0.061490100260737396
44.0673828125,-0.06222208713687446
44.05517578125,-0.0628379274815141
44.04296875,-0.0633360839018481
44.03076171875,-0.0637159116794733
44.0185546875,-0.0639766178831434
44.00634765625,-0.06411754985454406
43.994140625,-0.06413853028167957
43.98193359375,-0.06403941647078323
43.9697265625,-0.06382045222242962
43.95751953125,-0.06348177384625518
43.9453125,-0.06302436332476063
43.93310546875,-0.06244863567251824
43.9208984375,-0.061756089515059925
43.90869140625,-0.060947637649282585
43.896484375,-0.06002464711906706
43.88427734375,-0.05898898381688482
43.8720703125,-0.05784255565100253
43.85986328125,-0.05658799495211976
43.84765625,-0.0552269492014984
43.83544921875,-0.05376179714159025
43.8232421875,-0.05219618644002265
43.81103515625,-0.05053178459985398
43.798828125,-0.04877227935830659
43.78662109375,-0.04692168736285263
43.7744140625,-0.044981987399237304
43.76220703125,-0.04295749986587762
43.75,-0.04085199221393822
43.73779296875,-0.038670761638359946
43.7255859375,-0.03641516394168672
43.71337890625,-0.034090733051156404
43.701171875,-0.03170180259263616
43.68896484375,-0.02925380593056843
43.6767578125,-0.02674937789825809
43.66455078125,-0.024194147887005694
43.65234375,-0.021593921829226197
43.64013671875,-0.01895150340683668
43.6279296875,-0.0162728473279668
43.61572265625,-0.013562959739940782
43.603515625,-0.010826906687722437
43.59130859375,-0.008070272040135667
43.5791015625,-0.005297280585305202
43.56689453125,-0.0025146851319699376
43.5546875,2.7450310269942465E-4
43.54248046875,0.003063965513682754
43.5302734375,0.005848478299001459
43.51806640625,0.008622825448939666
43.505859375,0.01138072343148816
43.49365234375,0.014119795640837611
43.4814453125,0.01683151403854985
43.46923828125,0.019513554329590257
43.45703125,0.022159809133911513
43.44482421875,0.02476531262418119
43.4326171875,0.027324745459596036
43.42041015625,0.02983416657139079
43.408203125,0.03228842567553017
43.39599609375,0.03468291099303939
43.3837890625,0.037012733316123966
43.37158203125,0.03927429865772927
43.359375,0.04146295296520766
43.34716796875,0.04357422674576569
43.3349609375,0.045605642623655705
43.32275390625,0.04755065686030027
43.310546875,0.049408364789884286
43.29833984375,0.05117296133595922
43.2861328125,0.052843577787274124
43.27392578125,0.054414768611764995
43.26171875,0.055884772372680774
43.24951171875,0.05725082960864634
43.2373046875,0.05850926072255451
43.22509765625,0.05965899211299272
43.212890625,0.060697543101662615
43.20068359375,0.06162212611316333
43.1884765625,0.06243212383345797
43.17626953125,0.0631252336258497
43.1640625,0.06370043638530437
43.15185546875,0.06415620546559876
43.1396484375,0.06449221850042366
43.12744140625,0.06470745689666647
43.115234375,0.06480158005667915
43.10302734375,0.06477436935321362
43.0908203125,0.06462580734990886
43.07861328125,0.0643563216367977
43.06640625,0.0639658704356161
43.05419921875,0.0634558132376716
43.0419921875,0.06282669392764612
43.02978515625,0.062079868796226824
43.017578125,0.06121624252180395
43.00537109375,0.060237904994476586
42.9931640625,0.05914621482277481
