Freq, Coherency
49.91455078125,0.09090956688001792
49.90234375,0.0901532508537665
49.89013671875,0.0893788511263428
49.8779296875,0.0885873718392984
49.86572265625,0.08777807006462814
49.853515625,0.08695111744782881
49.841312408447266,0.08610751338073526
49.8291015625,0.08524633889580845
49.81689453125,0.08436859281095774
49.8046875,0.08347445386560608
49.792484283447266,0.08256334755625964
49.780277252197266,0.08163562600600828
49.76806640625,0.08069211838956711
49.755859375,0.07973252396451469
49.74365234375,0.0787567622698401
49.7314453125,0.07776609623309039
49.71923828125,0.0767592399723593
49.70703125,0.07573788504214256
49.69482421875,0.07470107065216613
49.6826171875,0.073649026737073
49.67041015625,0.07258311418672257
49.658203125,0.07150194998712356
49.64599609375,0.07040691539749398
49.6337890625,0.06929784594424457
49.62158203125,0.06817500692055083
49.609375,0.06703851092147031
49.59716796875,0.06588822416895856
49.5849609375,0.06472517131692136
49.57275390625,0.06354876418253678
49.560546875,0.06236052324302856
49.54833984375,0.06115890766793456
49.5361328125,0.059945937651254194
49.52392578125,0.05871955371382268
49.51171875,0.05748278596394847
49.49951171875,0.05623354895055255
49.4873046875,0.05497344296966543
49.47509765625,0.05370278196754597
49.462890625,0.05242035699939189
49.450687408447266,0.051127761405916745
49.4384765625,0.049824493530064295
49.42626953125,0.048511625198803324
49.4140625,0.047188886693567605
49.40185546875,0.045856127355917
49.3896484375,0.044515067960694946
49.37744140625,0.04316397078214566
49.365234375,0.04180456948830155
49.35302734375,0.040436720586532866
49.3408203125,0.03906056332921141
49.32861328125,0.037675942615345036
49.31640625,0.03628464550105958
49.30419921875,0.034884869652312404
49.2919921875,0.033477920388577886
49.27978515625,0.032064565850994924
49.267578125,0.030644093519343378
49.255367279052734,0.029217892419622905
49.243167877197266,0.0277853254879
49.23095703125,0.02634676502458828
49.218753814697266,0.02490352358006566
49.206546783447266,0.023454099022337752
49.1943359375,0.022000356222948908
49.182132720947266,0.02054176958915301
49.169925689697266,0.01907834765477805
49.15771484375,0.017611465237626137
49.145503997802734,0.016140259546414976
49.13330078125,0.01466586195610376
49.12109375,0.013188285712003764
49.10888671875,0.011707244074903566
49.0966796875,0.01022354143379986
49.08447265625,0.008737986485419706
49.072265625,0.007250419910525372
49.06005859375,0.005760474522195688
49.0478515625,0.004269549799842379
49.03564453125,0.002777485543768211
49.0234375,0.0012839141425601735
49.01123046875,-2.09761241365567E-4
48.9990234375,-0.001703701406661091
48.98681640625,-0.0031982737424056974
48.974609375,-0.004692073868841659
48.96240234375,-0.006185262900785572
48.9501953125,-0.007678797049742061
48.93798828125,-0.009170024712179637
48.92578125,-0.010659902882568035
48.913578033447266,-0.012148129114791146
48.9013671875,-0.013635276298553056
48.889156341552734,-0.015119542377200774
48.876953125,-0.016600373657295803
48.86474609375,-0.018079308248549485
48.852542877197266,-0.019554620694628926
48.84033203125,-0.021026812914954663
48.828125,-0.022495387339374385
48.81591796875,-0.023958842434316133
48.8037109375,-0.025419070895392
48.79150390625,-0.02687469456021844
48.779296875,-0.02832542760237013
48.76708984375,-0.02977098507956509
48.7548828125,-0.03121001331809176
48.742679595947266,-0.032643928844967286
48.73046875,-0.03407214530845137
48.71826171875,-0.03549417808437173
48.7060546875,-0.03690962611466851
48.69384765625,-0.038318210928278244
48.681640625,-0.039718615050387554
48.66943359375,-0.041112648780636016
48.6572265625,-0.04249899193153941
48.64501953125,-0.0438773714429548
48.6328125,-0.04524751574266912
48.62060546875,-0.04660861852621406
48.6083984375,-0.04796148742485452
48.59619140625,-0.049304848406290194
48.583984375,-0.05063884938362176
48.57177734375,-0.05196381089757144
48.5595703125,-0.053278942282517235
48.54736328125,-0.05458347026443584
48.53515625,-0.05587816840090569
48.52294921875,-0.05716226324321035
48.5107421875,-0.058435500984204754
48.49853515625,-0.0596971334384878
48.486328125,-0.060947908375848826
48.47412109375,-0.06218707743593176
48.4619140625,-0.0634139128059589
48.44970703125,-0.06462914135849082
48.4375,-0.06583203510595592
48.42529296875,-0.06702188790407021
48.4130859375,-0.06819940443310876
48.40087890625,-0.06936387837447945
48.388671875,-0.07051507868832664
48.37646484375,-0.07165233007407362
48.3642578125,-0.07277630567274732
48.35205078125,-0.07388633001059741
48.33984375,-0.0749821824617802
48.32763671875,-0.07606364511494913
48.3154296875,-0.07713008422757804
48.30322265625,-0.07818213052099006
48.291015625,-0.07921874336529663
48.27880859375,-0.0802405356258572
48.2666015625,-0.0812468909050067
48.25439453125,-0.0822376084660939
48.2421875,-0.08321249057849002
48.22998046875,-0.08417096692297418
48.2177734375,-0.08511360361367802
48.205570220947266,-0.08603954532570662
48.193359375,-0.08694946125714965
48.18115234375,-0.08784196535700839
48.1689453125,-0.0887178691319278
48.15673828125,-0.08957664088547812
48.144527435302734,-0.09041803769639145
48.13232421875,-0.09124206494159157
48.1201171875,-0.0920484209368006
48.10791015625,-0.09283697582076257
48.095703125,-0.09360726995836624
48.083499908447266,-0.09435952633400461
48.0712890625,-0.09509397714734047
48.059085845947266,-0.09580956291577751
48.046875,-0.09650699570542837
48.03466796875,-0.09718554078632557
48.0224609375,-0.09784524744565745
48.01025390625,-0.09848573247675309
47.998046875,-0.09910737203234776
47.98583984375,-0.09970978275842236
47.9736328125,-0.10029304208709743
47.96142578125,-0.10085662388366351
47.94921875,-0.10140040885450322
47.93701171875,-0.10192471546044334
47.9248046875,-0.10242902193751867
47.91259765625,-0.10291378889973457
47.900390625,-0.1033783748400424
47.88818359375,-0.10382268481832818
47.8759765625,-0.10424697797819568
47.86376953125,-0.10465098658110061
47.8515625,-0.10503475677999971
47.83935546875,-0.10539794042054629
47.8271484375,-0.10574046741248248
47.81494140625,-0.10606253623529367
47.802734375,-0.10636392580910868
47.79052734375,-0.10664470634454229
47.7783203125,-0.10690458152061048
47.76611328125,-0.10714359964623311
47.75390625,-0.10736173057047226
47.74169921875,-0.1075588410405544
47.7294921875,-0.10773504291424121
47.71728515625,-0.10789026478322264
47.705078125,-0.10802436252817453
47.69287109375,-0.10813732187063357
47.6806640625,-0.10822923295290923
47.66845703125,-0.10829995938696253
47.65625,-0.10834950225692856
47.64404296875,-0.10837789178211985
47.6318359375,-0.10838507336499252
47.619625091552734,-0.108371055824268
47.607421875,-0.10833581416587834
47.59521484375,-0.10827940714195129
47.5830078125,-0.10820175423998143
47.57080078125,-0.10810298069121557
47.55859375,-0.10798294728769435
47.54638671875,-0.10784180864269888
47.5341796875,-0.10767953070668561
47.52197265625,-0.10749615464843958
47.509765625,-0.10729169402806063
47.497562408447266,-0.10706626453594753
47.4853515625,-0.10681959542727003
47.47314453125,-0.1065521212820466
47.4609375,-0.10626374707583464
47.44873046875,-0.10595449730478733
47.4365234375,-0.10562445543056802
47.42431640625,-0.10527365029725047
47.412109375,-0.10490202650445482
47.39990234375,-0.10450991075207469
47.3876953125,-0.1040974153453082
47.37548828125,-0.10366413482071808
47.36328125,-0.10321060998313912
47.35107421875,-0.10273679879959967
47.3388671875,-0.10224254600370679
47.326656341552734,-0.10172821603230531
47.314453125,-0.10119415375190827
47.30224609375,-0.10063979670058054
47.2900390625,-0.10006602833216681
47.27783203125,-0.0994721015090643
47.265625,-0.0988585470957639
47.253421783447266,-0.09822590373856356
47.2412109375,-0.09757351173174146
47.22900390625,-0.09690230079213377
47.216796875,-0.09621117582148918
47.20458984375,-0.09550184030630358
47.1923828125,-0.09477310297707005
47.18017578125,-0.09402588665098054
47.16796875,-0.09326011709700247
47.15576171875,-0.09247527850907233
47.1435546875,-0.09167304206972965
47.13134765625,-0.09085205943210778
47.119140625,-0.09001370769642822
47.10693359375,-0.08915689805425686
47.094722747802734,-0.08828248579317359
47.08251953125,-0.08739072722633465
47.0703125,-0.08648139422043381
47.05810546875,-0.0855552628255766
47.0458984375,-0.08461211032987506
47.03369140625,-0.0836522032766953
47.021484375,-0.08267529307466609
47.00927734375,-0.08168229196298107
46.9970703125,-0.08067269661705717
46.98486328125,-0.07964704417998211
46.97265625,-0.0786063117602456
46.96044921875,-0.07754914940506975
46.9482421875,-0.07647652876720011
46.93603515625,-0.07538903801031681
46.923828125,-0.07428656507177797
46.91162109375,-0.07316882779100564
46.8994140625,-0.07203732125865414
46.88720703125,-0.07089057846875053
46.875,-0.06972965696311606
46.862789154052734,-0.06855488034957517
46.8505859375,-0.0673665916529706
46.83837890625,-0.06616496787554305
46.826171875,-0.06494960362004787
46.81396484375,-0.06372169283791963
46.8017578125,-0.06248050233176122
46.78955078125,-0.061227193842272355
46.77734375,-0.05996113422907899
46.76513671875,-0.05868351042486192
46.7529296875,-0.05739355994403901
46.74072265625,-0.056092490647759556
46.728515625,-0.05478016623090546
46.71630859375,-0.05345625601443224
46.7041015625,-0.052121532328233126
46.69189453125,-0.05077625352293878
46.6796875,-0.04942121732719481
46.66748046875,-0.048056094042121224
46.6552734375,-0.0466807282251807
46.64306640625,-0.045296409966416463
46.630859375,-0.04390231406029674
46.618656158447266,-0.042499136582395354
46.6064453125,-0.04108750751816949
46.59423828125,-0.03966790543515206
46.58203125,-0.03823960371083309
46.56982421875,-0.036803941371763106
46.5576171875,-0.03536019486031294
46.54541015625,-0.03390971891338457
46.533203125,-0.0324516496009836
46.52099609375,-0.03098684191483387
46.5087890625,-0.02951558072794015
46.49658203125,-0.028038736775470332
46.484375,-0.02655543076494094
46.47216796875,-0.025066533562188468
46.4599609375,-0.023572335056003455
46.44775390625,-0.02207371913935584
46.435546875,-0.020569793894994925
46.42333984375,-0.019062039735370764
46.4111328125,-0.0175489615177538
46.39892578125,-0.016033242685561548
46.38671875,-0.014513385094987659
46.37451171875,-0.012990283187946903
46.3623046875,-0.011464234165925123
46.35009765625,-0.009936139943126313
46.337890625,-0.008405091726739557
46.32568359375,-0.0068719915811447305
46.3134765625,-0.005337745286460063
46.30126953125,-0.003801440638617636
46.2890625,-0.0022639835721599264
46.27685546875,-7.256746517994561E-4
46.2646484375,8.125776647174356E-4
46.25244140625,0.0023516876335682993
46.240234375,0.0038907466373450062
46.22802734375,0.0054288460740328365
46.2158203125,0.006966899861622123
46.20361328125,0.008503999234838562
46.19140625,0.010039843138917818
46.17919921875,0.011574060431263519
46.1669921875,0.01310649104682876
46.15478515625,0.014636764271160717
46.142578125,0.01616397738427601
46.13037109375,0.017689037256857856
46.1181640625,0.01921104099839566
46.10595703125,0.02072968994747113
46.09375,0.022244616706347184
46.08154296875,0.023755662640276513
46.0693359375,0.02526246150463303
46.05712890625,0.026764717294780967
46.044921875,0.028262134815824114
46.03271484375,0.029753831626283752
46.0205078125,0.03124121069089886
46.00830078125,0.0327223514705038
45.99609375,0.034196901302979754
45.98388671875,0.03566573478445512
45.9716796875,0.03712740323064498
45.95947265625,0.0385838533043014
45.947265625,0.04003148423768167
45.93505859375,0.04147223941578357
45.9228515625,0.04290469751561173
45.91064453125,0.044330203543960334
45.8984375,0.04574691443953566
45.88623046875,0.04715504948481983
45.8740234375,0.048554330818555126
45.86181640625,0.04994441878967022
45.849609375,0.051325166239119584
45.83740234375,0.05269623656829244
45.8251953125,0.05405783213829705
45.81298828125,0.055408202494972865
45.80078125,0.05674862406220601
45.78857421875,0.05807875850187603
45.7763671875,0.05939689614085121
45.76416015625,0.06070428319160868
45.751953125,0.062000588204989125
45.73974609375,0.06328414533271147
45.7275390625,0.06455616835634864
45.71533203125,0.0658163333045639
45.703125,0.06706351098281331
45.69091796875,0.0682978957580787
45.6787109375,0.06951918701297853
45.66650390625,0.0707272540682932
45.654296875,0.07192174634706236
45.64208984375,0.07310253582474494
45.629878997802734,0.07426969230597943
45.61767578125,0.07542230467642755
45.60546875,0.07655997131287318
45.59326171875,0.07768379893546029
45.5810546875,0.0787923273335254
45.56884765625,0.0798856805104066
45.556640625,0.08096374052028386
45.54443359375,0.08202624185339606
45.5322265625,0.08307333491778618
45.52001953125,0.08410407993411241
45.5078125,0.08511859288681312
45.49560546875,0.08611676373993303
45.483394622802734,0.08709860312477312
45.47119140625,0.08806347661123327
45.458984375,0.08901124600075325
45.44677734375,0.08994189043252514
45.4345703125,0.09085513797376615
45.42236328125,0.09175154846152618
45.41015625,0.09262922400220147
45.39794921875,0.0934893150806576
45.3857421875,0.09433170595952278
45.37353515625,0.09515548502043625
45.361328125,0.0959608975000911
45.34912109375,0.09674770709859704
45.3369140625,0.09751612632152344
45.32470703125,0.09826532299765368
45.3125,0.09899577238497498
45.30029296875,0.09970678198376877
45.2880859375,0.10039843441209792
45.27587890625,0.10107065236433388
45.263671875,0.10172349123810098
45.25146484375,0.1023565798432246
45.2392578125,0.10296934032875829
45.22705078125,0.10356255912788347
45.21484375,0.10413542913189991
45.20263671875,0.10468809563955545
45.1904296875,0.10522060053895362
45.17822265625,0.10573263758602741
45.166015625,0.10622393307110675
45.15380859375,0.1066945464114217
45.1416015625,0.10714457631387317
45.12939453125,0.10757359304060486
45.1171875,0.10798180633960605
45.10498046875,0.10836882856193975
45.0927734375,0.10873488373647894
45.08056640625,0.10907962086728362
45.068359375,0.109403083799299
45.05615234375,0.10970533474062781
45.0439453125,0.10998617677891642
45.03173828125,0.11024546232812947
45.01953125,0.11048322612152266
45.00732421875,0.1106995091895686
44.9951171875,0.11089416516710057
44.98291015625,0.11106709345166027
44.970703125,0.11121831954528136
44.95849609375,0.111347863150129
44.9462890625,0.11145559073611691
44.93408203125,0.1115415602950317
44.921875,0.11160570219441104
44.90966796875,0.11164798694779371
44.8974609375,0.11166842980326999
44.88525390625,0.11166700707255271
44.873046875,0.11164371191540333
44.86083984375,0.11159853913900589
44.8486328125,0.11153152235599163
44.83642578125,0.11144261578018318
44.82421875,0.11133189541012643
44.81201171875,0.11119935627072713
44.7998046875,0.11104494851351993
44.78759765625,0.11086874439118609
44.775390625,0.11067077241877876
44.76318359375,0.11045115635436212
44.7509765625,0.11020975985090214
44.73876953125,0.10994670661698874
44.7265625,0.1096620422068268
44.71435546875,0.10935594149275424
44.7021484375,0.1090282168306461
44.68994140625,0.10867904305345767
44.677734375,0.10830863305375805
44.66552734375,0.10791676105668195
44.6533203125,0.10750363992308622
44.64111328125,0.10706934469519892
44.62890625,0.1066141384141823
44.61669921875,0.1061377450451814
44.6044921875,0.10564042760798745
44.59228515625,0.10512227771584165
44.580078125,0.10458360778925241
44.56787109375,0.10402409234412786
44.5556640625,0.1034440437900409
44.54345703125,0.10284381098239914
44.53125,0.10222303197722551
44.51904296875,0.1015820556268653
44.5068359375,0.1009210018663249
44.49462890625,0.1002399945938906
44.482421875,0.09953944206192741
44.47021484375,0.09881892294043695
44.4580078125,0.09807884549188338
44.44580078125,0.09731938436037715
44.43359375,0.09654061350582012
44.42138671875,0.09574271434171282
44.4091796875,0.09492616384168845
44.39697265625,0.09409047205443977
44.384765625,0.09323611597947834
44.37255859375,0.09236325774488936
44.3603515625,0.09147210426379022
44.34814453125,0.09056274355454037
44.3359375,0.08963538893570461
44.32373046875,0.08869059341753714
44.3115234375,0.08772779124801189
44.29931640625,0.08674719046527687
44.287109375,0.08574966221948271
44.27490234375,0.0847354617423446
44.2626953125,0.08370398229282883
44.25048828125,0.08265581811653015
44.23828125,0.0815907955405495
44.22607421875,0.08051029105172856
44.2138671875,0.079413290204788
44.20166015625,0.07830047779191587
44.189453125,0.07717196568659408
44.17724609375,0.0760280209732174
44.1650390625,0.07486886336402035
44.15283203125,0.07369476955581045
44.140625,0.07250538612144566
44.12841796875,0.0713024108833166
44.1162109375,0.07008423227768633
44.10400390625,0.06885240650019094
44.091796875,0.06760724262416117
44.07958984375,0.0663475560661079
44.0673828125,0.06507495708476878
44.05517578125,0.0637892541868594
44.04296875,0.06249075504818632
44.03076171875,0.061179591802076334
44.0185546875,0.05985607666748428
44.00634765625,0.058520526602048546
43.994140625,0.05717307782867011
43.98193359375,0.05581357546087503
43.9697265625,0.054443773570365436
43.95751953125,0.05306135287871465
43.9453125,0.05166972458261335
43.93310546875,0.050267036849804866
43.9208984375,0.048854173262242735
43.90869140625,0.047431278656175885
43.896484375,0.04599819166701078
43.88427734375,0.044556189796306316
43.8720703125,0.04310454682034679
43.85986328125,0.04164513466673647
43.84765625,0.040176066176446465
43.83544921875,0.03869922556609268
43.8232421875,0.03721445676917935
43.81103515625,0.03572191278534931
43.798828125,0.03422142673129811
43.78662109375,0.032714932876907125
43.7744140625,0.03120048376015174
43.76220703125,0.029680023535785617
43.75,0.028152787411910542
43.73779296875,0.026620208013788227
43.7255859375,0.02508191236746015
43.71337890625,0.023537730465984674
43.701171875,0.02198904026690561
43.68896484375,0.020435676957786444
43.6767578125,0.018877257399640877
43.66455078125,0.017315243286201817
43.65234375,0.01574946808623508
43.64013671875,0.01418009447571602
43.6279296875,0.012606950951266764
43.61572265625,0.01103089180233051
43.603515625,0.009452776042617054
43.59130859375,0.007872434927609981
43.5791015625,0.00628948072328035
43.56689453125,0.004706024201713518
43.5546875,0.0031200200960054187
43.54248046875,0.0015329557881286818
43.5302734375,-5.430416260853498E-5
43.51806640625,-0.0016425564398667354
43.505859375,-0.0032303099234644445
43.49365234375,-0.00481850624615509
43.4814453125,-0.006405028192423257
43.46923828125,-0.00799192435177875
43.45703125,-0.009577703474650931
43.44482421875,-0.011162054496289042
43.4326171875,-0.012743491224293784
43.42041015625,-0.014324055316573962
43.408203125,-0.01590225973726414
43.39599609375,-0.017477794553243834
43.3837890625,-0.019049730774323387
43.37158203125,-0.02061845305382389
43.359375,-0.022184126899344656
43.34716796875,-0.023745281541184955
43.3349609375,-0.025303454983633934
43.32275390625,-0.026855884169786976
43.310546875,-0.028404103471127495
43.29833984375,-0.0299460501211458
43.2861328125,-0.03148431902280992
43.27392578125,-0.03301564299681539
43.26171875,-0.03454153592794358
43.24951171875,-0.036061091848323776
43.2373046875,-0.03757341594527557
43.22509765625,-0.03907940312907991
43.212890625,-0.040578158397293666
43.20068359375,-0.04206879949000154
43.1884765625,-0.043552208195307245
43.17626953125,-0.04502750206328206
43.1640625,-0.046493879591620116
43.15185546875,-0.04795150095411863
43.1396484375,-0.04940071493797482
43.12744140625,-0.0508406582613151
43.115234375,-0.052271046107592326
43.10302734375,-0.05369103728109665
43.0908203125,-0.055101470988097735
43.07861328125,-0.05650095587618626
43.06640625,-0.05789086452692284
43.05419921875,-0.05926873039918638
43.0419921875,-0.06063591735539753
43.02978515625,-0.061991547082510645
43.017578125,-0.06333547414955924
43.00537109375,-0.06466736981604054
42.9931640625,-0.06598696964042684
42.98095703125,-0.06729349864842568
42.96875,-0.06858772795337736
42.95654296875,-0.06986888239668662
42.9443359375,-0.07113670717699955
42.93212890625,-0.07239045818986897
