Freq, Coherency
49.91455078125,0.03241476535318533
49.90234375,0.029896522867720477
49.89013671875,0.027173845707084452
49.8779296875,0.024268882367703803
49.86572265625,0.021197729203598577
49.853515625,0.017980696991243657
49.841312408447266,0.014643636307623544
49.8291015625,0.01120283244104516
49.81689453125,0.0076893600750250046
49.8046875,0.004121280508595237
49.792484283447266,5.243877729141458E-4
49.780277252197266,-0.003078350664690703
49.76806640625,-0.00665912254770355
49.755859375,-0.01019598680534813
49.74365234375,-0.013666301549586169
49.7314453125,-0.017041948461916367
49.71923828125,-0.020305882513182806
49.70703125,-0.023430325712810948
49.69482421875,-0.026399488562964053
49.6826171875,-0.029190427705718263
49.67041015625,-0.03178201905537649
49.658203125,-0.03416114508437055
49.64599609375,-0.036308323454088735
49.6337890625,-0.0382109780094065
49.62158203125,-0.039853763445891435
49.609375,-0.0412283314423146
49.59716796875,-0.04232330378871101
49.5849609375,-0.04313222699756346
49.57275390625,-0.04364878441273588
49.560546875,-0.04386986304809621
49.54833984375,-0.04379374976513724
49.5361328125,-0.043421192930860254
49.52392578125,-0.04275367733415593
49.51171875,-0.041797329204237045
49.49951171875,-0.04055669402295142
49.4873046875,-0.03904081685610839
49.47509765625,-0.03726156213896784
49.462890625,-0.035227836073899156
49.450687408447266,-0.03295553191896284
49.4384765625,-0.0304590198201415
49.42626953125,-0.027756111225419725
49.4140625,-0.0248633450188687
49.40185546875,-0.02180279755866982
49.3896484375,-0.01859356029305828
49.37744140625,-0.015256239888350988
49.365234375,-0.011816317009600504
49.35302734375,-0.00829522036520926
49.3408203125,-0.0047156378758535416
49.32861328125,-0.001103192603021552
49.31640625,0.0025144964723690546
49.30419921875,0.00611918836162603
49.2919921875,0.009683301005596437
49.27978515625,0.013181022703794083
49.267578125,0.01659194436419862
49.255367279052734,0.019890971116226615
49.243167877197266,0.02305557382206631
49.23095703125,0.026063769205373184
49.218753814697266,0.028896914374274347
49.206546783447266,0.031535782987824675
49.1943359375,0.03396133803942254
49.182132720947266,0.03615685122987695
49.169925689697266,0.03810765871270619
49.15771484375,0.03980147845349782
49.145503997802734,0.04122595585180845
49.13330078125,0.04237114316829143
49.12109375,0.043229782974038615
49.10888671875,0.04379548580424749
49.0966796875,0.044064611458461515
49.08447265625,0.044035134268458315
49.072265625,0.043707352524372835
49.06005859375,0.043083126807260744
49.0478515625,0.04216668448522321
49.03564453125,0.04096501139147664
49.0234375,0.03948466586653494
49.01123046875,0.03773628187440861
48.9990234375,0.03573248146809904
48.98681640625,0.03348520714461139
48.974609375,0.031010983593782033
48.96240234375,0.028326448604914792
48.9501953125,0.025447027854870432
48.93798828125,0.022396704124767852
48.92578125,0.019192615902010844
48.913578033447266,0.015858661286698862
48.9013671875,0.012414269485442287
48.889156341552734,0.008886201579785688
48.876953125,0.00529782474150061
48.86474609375,0.0016715263550162553
48.852542877197266,-0.0019650333606151655
48.84033203125,-0.005590872952957657
48.828125,-0.009180035824297286
48.81591796875,-0.012706502156811171
48.8037109375,-0.016149929776350255
48.79150390625,-0.0194831446983007
48.779296875,-0.022686674195301435
48.76708984375,-0.025736445765370375
48.7548828125,-0.028611427763405004
48.742679595947266,-0.03129355154320388
48.73046875,-0.0337648771031899
48.71826171875,-0.036008155207490504
48.7060546875,-0.038007903163780214
48.69384765625,-0.03975050311723651
48.681640625,-0.04122355146155213
48.66943359375,-0.042418402739335885
48.6572265625,-0.043325686631183906
48.64501953125,-0.04393949661745289
48.6328125,-0.044255597250476376
48.62060546875,-0.04427179107477879
48.6083984375,-0.043987897226346925
48.59619140625,-0.043405737981294164
48.583984375,-0.042529586017417555
48.57177734375,-0.04136430670598043
48.5595703125,-0.039918565560989334
48.54736328125,-0.038202576638656574
48.53515625,-0.03622605523963027
48.52294921875,-0.03400389358846768
48.5107421875,-0.03155065455098916
48.49853515625,-0.028883342297341682
48.486328125,-0.026019150547852334
48.47412109375,-0.022977105231334984
48.4619140625,-0.01978051085575727
48.44970703125,-0.016447781217559958
48.4375,-0.013001874370235944
48.42529296875,-0.00946915913239044
48.4130859375,-0.00586911765904462
48.40087890625,-0.002229218383429046
48.388671875,0.0014275883302809949
48.37646484375,0.005073354362289472
48.3642578125,0.008687948413447628
48.35205078125,0.012243707573676156
48.33984375,0.01571818703962955
48.32763671875,0.01908695028479156
48.3154296875,0.022325125406742547
48.30322265625,0.02541480084633543
48.291015625,0.02833111660403006
48.27880859375,0.031057927161931335
48.2666015625,0.03357479408412626
48.25439453125,0.035864079154866745
48.2421875,0.03791128329029424
48.22998046875,0.03970123730302054
48.2177734375,0.04122314351261429
48.205570220947266,0.042465255004499075
48.193359375,0.043420682348238815
48.18115234375,0.04408132518333998
48.1689453125,0.044443436739410334
48.15673828125,0.04450433804359046
48.144527435302734,0.044263450374015065
48.13232421875,0.04372250260551387
48.1201171875,0.0428847600059302
48.10791015625,0.04175594902637584
48.095703125,0.04034462840630156
48.083499908447266,0.03865907966814126
48.0712890625,0.036709783707022985
48.059085845947266,0.034512291627637304
48.046875,0.03207973864378604
48.03466796875,0.02942879312846636
48.0224609375,0.026577573713478606
48.01025390625,0.0235465916866408
47.998046875,0.020353973451974303
47.98583984375,0.01702248870967829
47.9736328125,0.01357469632826906
47.96142578125,0.010033949790324135
47.94921875,0.006425668961998896
47.93701171875,0.0027714704047278314
47.9248046875,-9.01020978961257E-4
47.91259765625,-0.004569790947027296
47.900390625,-0.008208513450829085
47.88818359375,-0.011791106908841853
47.8759765625,-0.015296076860815232
47.86376953125,-0.018699002512935957
47.8515625,-0.021975165746395107
47.83935546875,-0.025103134433979823
47.8271484375,-0.028060528496424854
47.81494140625,-0.030829572345746768
47.802734375,-0.03338985616601223
47.79052734375,-0.035725632788414445
47.7783203125,-0.03781875033189526
47.76611328125,-0.03965524371228052
47.75390625,-0.04122437481558205
47.74169921875,-0.04251346388325098
47.7294921875,-0.04351511386896742
47.71728515625,-0.04422202643238037
47.705078125,-0.04462899588656023
47.69287109375,-0.04473340585638457
47.6806640625,-0.04453446892298594
47.66845703125,-0.04403344928437513
47.65625,-0.04323402805168973
47.64404296875,-0.04214062754654194
47.6318359375,-0.040761361414992064
47.619625091552734,-0.0391050116901324
47.607421875,-0.03718307269692905
47.59521484375,-0.035008960984416804
47.5830078125,-0.03259652641109816
47.57080078125,-0.029962816456474684
47.55859375,-0.02712366013168227
47.54638671875,-0.024101370469634294
47.5341796875,-0.020914376690259123
47.52197265625,-0.017585238595611445
47.509765625,-0.014134628383744973
47.497562408447266,-0.010589169464739786
47.4853515625,-0.0069678971348564435
47.47314453125,-0.0033003837346369845
47.4609375,3.8989124551283636E-4
47.44873046875,0.004079930151414768
47.4365234375,0.007740951005355893
47.42431640625,0.01135271998020997
47.412109375,0.014888396861050571
47.39990234375,0.01832397095166674
47.3876953125,0.021634060945801954
47.37548828125,0.024800346638508473
47.36328125,0.0277991770018874
47.35107421875,0.03060909459643005
47.3388671875,0.03321358228087369
47.326656341552734,0.03559276721104396
47.314453125,0.037730649810143006
47.30224609375,0.03961377022602176
47.2900390625,0.04122800522613497
47.27783203125,0.042563600483190904
47.265625,0.043610732146996525
47.253421783447266,0.044361891145757136
47.2412109375,0.044812698026428566
47.22900390625,0.04495960198225534
47.216796875,0.04480146938986311
47.20458984375,0.044339541028083115
47.1923828125,0.043576506408361734
47.18017578125,0.04251758623277641
47.16796875,0.041170473571913856
47.15576171875,0.0395424812400705
47.1435546875,0.03764713123214184
47.13134765625,0.0354945991800275
47.119140625,0.0331021229427659
47.10693359375,0.030483512116413803
47.094722747802734,0.027657616902962315
47.08251953125,0.02464281938226157
47.0703125,0.02146026485943946
47.05810546875,0.018132591862518622
47.0458984375,0.014679725766157479
47.03369140625,0.011126905294892827
47.021484375,0.007497103005437996
47.00927734375,0.00381547559763085
46.9970703125,1.0699066860892212E-4
46.98486328125,-0.0036040731078045697
46.97265625,-0.007289335922737531
46.96044921875,-0.01092756272342786
46.9482421875,-0.014493433086905785
46.93603515625,-0.017961042729587196
46.923828125,-0.021306403011824262
46.91162109375,-0.02451015257213456
46.8994140625,-0.027546497717442952
46.88720703125,-0.03039795590938112
46.875,-0.033044503412966074
46.862789154052734,-0.03546668004888532
46.8505859375,-0.037649713472060975
46.83837890625,-0.03957640587491904
46.826171875,-0.0412362325753147
46.81396484375,-0.042615779087514696
46.8017578125,-0.043707344727691326
46.78955078125,-0.04450233139205315
46.77734375,-0.04499564064766733
46.76513671875,-0.045183598097844474
46.7529296875,-0.0450650839475496
46.74072265625,-0.044640743425403334
46.728515625,-0.04391352012492763
46.71630859375,-0.0428877636696373
46.7041015625,-0.04157093117930327
46.69189453125,-0.0399712610209034
46.6796875,-0.03810060302405567
46.66748046875,-0.03597064898858473
46.6552734375,-0.0335954631780186
46.64306640625,-0.0309926455237575
46.630859375,-0.028178450355047555
46.618656158447266,-0.025171310948582437
46.6064453125,-0.021993014986857913
46.59423828125,-0.01866564615812414
46.58203125,-0.015209399396374243
46.56982421875,-0.011649838106728767
46.5576171875,-0.008009412413793285
46.54541015625,-0.004315106671955985
46.533203125,-5.890825480625495E-4
46.52099609375,0.00314193054221851
46.5087890625,0.006852605577802231
46.49658203125,0.010516318919422061
46.484375,0.01411106570889309
46.47216796875,0.017610973165265807
46.4599609375,0.02099225659660156
46.44775390625,0.024229938753165647
46.435546875,0.027306789893452012
46.42333984375,0.03019657476802858
46.4111328125,0.03288564148214591
46.39892578125,0.03534949255591363
46.38671875,0.03757503768542836
46.37451171875,0.03954609139701523
46.3623046875,0.04124920516064128
46.35009765625,0.04267224268204071
46.337890625,0.043806587082807186
46.32568359375,0.04464384558657287
46.3134765625,0.04517810515528467
46.30126953125,0.04540609539875614
46.2890625,0.04532580893202594
46.27685546875,0.044937798939713045
46.2646484375,0.04424494901853935
46.25244140625,0.043251066153153286
46.240234375,0.04196350041353199
46.22802734375,0.04039138655141674
46.2158203125,0.038544085597265895
46.20361328125,0.03643409730940266
46.19140625,0.034076674727774446
46.17919921875,0.03148834639440423
46.1669921875,0.028683899363632154
46.15478515625,0.025684615595925584
46.142578125,0.022510671336465442
46.13037109375,0.01918257706996479
46.1181640625,0.01572336652316957
46.10595703125,0.012155631557456905
46.09375,0.00850670034857526
46.08154296875,0.004796737327636672
46.0693359375,0.00105408871623598
46.05712890625,-0.0026976080860649236
46.044921875,-0.006431990394679655
46.03271484375,-0.01012138421939964
46.0205078125,-0.013745367374826976
46.00830078125,-0.01727614338058493
45.99609375,-0.020690064078450095
45.98388671875,-0.023965744199268526
45.9716796875,-0.027077627079877768
45.95947265625,-0.030009565935293542
45.947265625,-0.03273563324955457
45.93505859375,-0.03524188149145708
45.9228515625,-0.03750860357781476
45.91064453125,-0.039522120429699506
45.8984375,-0.04126736861797766
45.88623046875,-0.042733249335500045
45.8740234375,-0.043909285308003934
45.86181640625,-0.0447871254099117
45.849609375,-0.045361416673277075
45.83740234375,-0.045627746288980454
45.8251953125,-0.04558434850262576
45.81298828125,-0.04523153393950743
45.80078125,-0.04457133820683092
45.78857421875,-0.043608240176813744
45.7763671875,-0.042349251093142866
45.76416015625,-0.04080185292984559
45.751953125,-0.038976914488697396
45.73974609375,-0.036887626626685564
45.7275390625,-0.03454646684135827
45.71533203125,-0.03197003767756039
45.703125,-0.0291757741554705
45.69091796875,-0.026182595489538732
45.6787109375,-0.023012055035097023
45.66650390625,-0.019683148149019097
45.654296875,-0.01622103733046064
45.64208984375,-0.012646481162750932
45.629878997802734,-0.00898392240622594
45.61767578125,-0.0052607384803453885
45.60546875,-0.0015020308680680494
45.59326171875,0.0022693694265981564
45.5810546875,0.006026379486409155
45.56884765625,0.00974202972313514
45.556640625,0.01339484693808088
45.54443359375,0.016956805136296774
45.5322265625,0.02040456167632617
45.52001953125,0.023714668961971733
45.5078125,0.026864130768719272
45.49560546875,0.029832493900582867
45.483394622802734,0.03259882044980081
45.47119140625,0.03514551364944494
45.458984375,0.0374524826317678
45.44677734375,0.0395071155521145
45.4345703125,0.04129281422560728
45.42236328125,0.04279983255288058
45.41015625,0.044015754916759874
45.39794921875,0.04493296912184351
45.3857421875,0.04554596100495953
45.37353515625,0.04584923549597017
45.361328125,0.04584133021666752
45.34912109375,0.0455221115398949
45.3369140625,0.04489329118509345
45.32470703125,0.04395974344388718
45.3125,0.0427272485246415
45.30029296875,0.041203823061189075
45.2880859375,0.039400758041719504
45.27587890625,0.037329334735761326
45.263671875,0.035003228128657526
45.25146484375,0.03243863430925504
45.2392578125,0.02965473390640176
45.22705078125,0.02666687809444071
45.21484375,0.02349827751901972
45.20263671875,0.020167925588531
45.1904296875,0.01670045451995442
45.17822265625,0.013117745962738675
45.166015625,0.009444919438018408
45.15380859375,0.005708384350126495
45.1416015625,0.0019305793662217747
45.12939453125,-0.0018613796306447277
45.1171875,-0.005640837849083061
45.10498046875,-0.009382441630335959
45.0927734375,-0.013062795818223057
45.08056640625,-0.01665539647595377
45.068359375,-0.020134466357322266
45.05615234375,-0.023479065442451645
45.0439453125,-0.02666503969436695
45.03173828125,-0.029670696671787143
45.01953125,-0.03247450402007061
45.00732421875,-0.035059555642937536
44.9951171875,-0.03740708363882726
44.98291015625,-0.03950153594484174
44.970703125,-0.041326956761449145
44.95849609375,-0.04287282824661103
44.9462890625,-0.04412736420996614
44.93408203125,-0.045082944795124286
44.921875,-0.045732443883923536
44.90966796875,-0.04607140705314434
44.8974609375,-0.04609728498813089
44.88525390625,-0.04581010689157928
44.873046875,-0.04521151240728423
44.86083984375,-0.0443052839334872
44.8486328125,-0.04309845564660168
44.83642578125,-0.04159801915076329
44.82421875,-0.039814049255483104
44.81201171875,-0.03776029248946139
44.7998046875,-0.03544862786341875
44.78759765625,-0.032894814365073646
44.775390625,-0.0301173475292371
44.76318359375,-0.02713494089204147
44.7509765625,-0.02396687514544065
44.73876953125,-0.02063426826418041
44.7265625,-0.01716129784881277
44.71435546875,-0.013571319985526206
44.7021484375,-0.009887579050794192
44.68994140625,-0.0061347360341227055
44.677734375,-0.002341544015400252
44.66552734375,0.0014709959361358447
44.6533203125,0.005273694369717582
44.64111328125,0.009042497579815194
44.62890625,0.012749431477700565
44.61669921875,0.016371341704917945
44.6044921875,0.019883827850630642
44.59228515625,0.023262111337596
44.580078125,0.026481958052897173
44.56787109375,0.029523264139868954
44.5556640625,0.032365447848990286
44.54345703125,0.03498740525267007
44.53125,0.03737330819592485
44.51904296875,0.03950532328094444
44.5068359375,0.04136989554183731
44.49462890625,0.042953738907254846
44.482421875,0.04424555916246216
44.47021484375,0.045237506767095
44.4580078125,0.045922189557406325
44.44580078125,0.04629478268429916
44.43359375,0.046352958676504845
44.42138671875,0.04609602666574232
44.4091796875,0.04552593043271507
44.39697265625,0.04464601096509436
44.384765625,0.0434623263613111
44.37255859375,0.04198283893989918
44.3603515625,0.0402182714672991
44.34814453125,0.03817915560855029
44.3359375,0.03587991476186456
44.32373046875,0.033337151188685535
44.3115234375,0.03056608778405971
44.29931640625,0.027585722016449207
44.287109375,0.024417667521560757
44.27490234375,0.021084065706522877
44.2626953125,0.01760491692905347
44.25048828125,0.014004245523350332
44.23828125,0.01030820025215589
44.22607421875,0.006542530612007907
44.2138671875,0.0027298620422559457
44.20166015625,-0.0011018362987602554
44.189453125,-0.0049277125928834774
44.17724609375,-0.008721160301565048
44.1650390625,-0.012457257079779857
44.15283203125,-0.016107406166711285
44.140625,-0.019652716058947254
44.12841796875,-0.023061838035410242
44.1162109375,-0.02631725027232624
44.10400390625,-0.029393871298916362
44.091796875,-0.03227109441972155
44.07958984375,-0.034930198337607424
44.0673828125,-0.037353124988390635
44.05517578125,-0.039522189386323035
44.04296875,-0.04142290269327548
44.03076171875,-0.04304285902784585
44.0185546875,-0.04437092862262439
44.00634765625,-0.045397236315415194
43.994140625,-0.046115388814877784
43.98193359375,-0.046520292356309105
43.9697265625,-0.046608925319937884
43.95751953125,-0.04638051373663828
43.9453125,-0.045837044601415355
43.93310546875,-0.044981414281215666
43.9208984375,-0.04382011237316713
43.90869140625,-0.04236004027378436
43.896484375,-0.04061144065379611
43.88427734375,-0.03858663649855626
43.8720703125,-0.03629836295922694
43.85986328125,-0.033763597834337786
43.84765625,-0.030997523279486783
43.83544921875,-0.02801983493648699
43.8232421875,-0.02485200367640455
43.81103515625,-0.021513036718470938
43.798828125,-0.018026802978128347
43.78662109375,-0.014418409499584445
43.7744140625,-0.010709533591029876
43.76220703125,-0.006926766488180547
43.75,-0.003095815833190482
43.73779296875,7.557634707462294E-4
43.7255859375,0.004604802103690276
43.71337890625,0.008423610897526131
43.701171875,0.012187089791752722
43.68896484375,0.015866420349374386
43.6767578125,0.019440338753114312
43.66455078125,0.022883045188539095
43.65234375,0.026169830425978532
43.64013671875,0.02928158734491198
43.6279296875,0.03219430711874216
43.61572265625,0.03488888098328782
43.603515625,0.03734747244048943
43.59130859375,0.03955131579329501
43.5791015625,0.041487688812705585
43.56689453125,0.04314219476347379
43.5546875,0.04450401462330012
43.54248046875,0.045563737659483225
43.5302734375,0.04631356872693306
43.51806640625,0.04674860673183045
43.505859375,0.04686580973312825
43.49365234375,0.04666432653417907
43.4814453125,0.04614549898219353
43.46923828125,0.04531237027730849
43.45703125,0.04417096774339511
43.44482421875,0.042728430190943266
43.4326171875,0.040995901259187735
43.42041015625,0.038982908299177416
43.408203125,0.03670406920983352
43.39599609375,0.03417544207101661
43.3837890625,0.03141409183158891
43.37158203125,0.028437146796073905
43.359375,0.025265841636055737
43.34716796875,0.02192385320265967
43.3349609375,0.01842827380476815
43.32275390625,0.014809077654979769
43.310546875,0.011086676502211177
43.29833984375,0.007289268810324148
43.2861328125,0.0034390950106022865
43.27392578125,-4.3346782271653454E-4
43.26171875,-0.0043057060342075616
43.24951171875,-0.008149753596273531
43.2373046875,-0.01193797282820673
43.22509765625,-0.015647540392220386
43.212890625,-0.019251692407897543
43.20068359375,-0.022724539755592573
43.1884765625,-0.02604513613519735
43.17626953125,-0.029189452432069034
43.1640625,-0.0321360417955289
43.15185546875,-0.03486377198373911
43.1396484375,-0.03735671816165174
43.12744140625,-0.039595555384047895
43.115234375,-0.04156559479181125
43.10302734375,-0.04325274870739976
43.0908203125,-0.04464677809780717
43.07861328125,-0.04573724912764144
43.06640625,-0.04651723679788852
43.05419921875,-0.046980420616541015
43.0419921875,-0.04712428793433107
43.02978515625,-0.04694757616445809
43.017578125,-0.046451340607647246
43.00537109375,-0.045638868556228986
