Freq, Coherency
49.91455078125,0.2660828572924498
49.90234375,0.26561074952567076
49.89013671875,0.26513567326189347
49.8779296875,0.26465772775572477
49.86572265625,0.2641766468247599
49.853515625,0.2636927069363456
49.841312408447266,0.26320581007897886
49.8291015625,0.26271583093645495
49.81689453125,0.26222309330892263
49.8046875,0.2617274364350457
49.792484283447266,0.2612287504648289
49.780277252197266,0.2607271789486103
49.76806640625,0.26022263568629145
49.755859375,0.25971517879533124
49.74365234375,0.2592048363041485
49.7314453125,0.2586917146236022
49.71923828125,0.2581755272724881
49.70703125,0.2576566719101557
49.69482421875,0.25713476325576556
49.6826171875,0.2566100044084267
49.67041015625,0.25608240641355123
49.658203125,0.2555519693383649
49.64599609375,0.25501860486553796
49.6337890625,0.25448241873591737
49.62158203125,0.253943522598547
49.609375,0.25340161505815356
49.59716796875,0.2528569072331562
49.5849609375,0.2523094066675674
49.57275390625,0.2517591209274127
49.560546875,0.25120606120110417
29.797365188598633,0.7753553945572007
29.785158157348633,0.7759840603145801
29.772947311401367,0.7766056208166605
29.760740280151367,0.777220124557125
29.74853515625,0.7778278156111466
29.736328125,0.7784288310794659
29.724123001098633,0.7790231034699974
29.711912155151367,0.7796108868641063
29.69970703125,0.7801922077909479
29.687501907348633,0.7807672594582477
29.67529296875,0.7813360455848614
29.663087844848633,0.7818987403429523
29.65087890625,0.7824554310843658
29.638669967651367,0.7830061797639462
29.626466751098633,0.7835511202754326
29.6142578125,0.7840903566881825
29.60205078125,0.7846238983222934
29.58984375,0.785151915820112
29.57763671875,0.7856745213840021
29.565431594848633,0.7861917666842498
29.553220748901367,0.7867037355112588
29.541015625,0.7872105467928816
29.528810501098633,0.787712225257042
29.5166015625,0.7882088991542328
29.504392623901367,0.7887006586660468
29.492189407348633,0.7891875357615686
29.479982376098633,0.7896697025141209
29.467775344848633,0.7901471504627272
29.455564498901367,0.7906200711014111
29.443359375,0.7910883473262954
29.43115234375,0.7915522535097664
29.4189453125,0.7920116760353538
29.406736373901367,0.7924668765313598
29.394533157348633,0.792917795453805
29.382326126098633,0.7933644723142587
29.370115280151367,0.7938072044601978
29.35791015625,0.7942457792301963
29.345705032348633,0.7946804088399148
29.33349609375,0.7951111522958284
29.3212890625,0.795538038356617
29.30908203125,0.7959611325380153
29.296875,0.7963805702927761
29.28466796875,0.7967963277150419
29.2724609375,0.7972084126877077
29.260255813598633,0.7976170300140947
29.248048782348633,0.7980221103469495
29.235841751098633,0.7984238261023505
29.2236328125,0.7988221459490572
29.211427688598633,0.7992171289020302
29.19921875,0.799608881065185
29.18701171875,0.7999973664336233
29.1748046875,0.8003827738501315
29.162599563598633,0.8007649906669575
29.150390625,0.8011441916715694
29.13818359375,0.8015203718611552
29.1259765625,0.8018935306779924
29.11376953125,0.8022638621207426
29.1015625,0.802631278072785
29.089353561401367,0.8029958401033465
29.077146530151367,0.8033576923320979
29.06494140625,0.803716746548644
29.052732467651367,0.8040731128399459
29.040529251098633,0.8044267990265996
29.028322219848633,0.8047779010698057
29.01611328125,0.8051263999786327
29.003908157348633,0.8054723827336564
28.99169921875,0.8058159204442497
28.979494094848633,0.806156921091412
28.96728515625,0.8064954860813986
28.955078125,0.8068317025807176
28.94287109375,0.8071656298470506
28.9306640625,0.8074972104426917
28.91845703125,0.807826479998301
28.90625,0.808153473432906
28.89404296875,0.8084783491284739
28.881834030151367,0.8088010120334366
28.869626998901367,0.8091215105121967
28.857421875,0.8094399098174847
28.845216751098633,0.8097562071842954
28.833009719848633,0.8100704918478727
28.820798873901367,0.8103827612615532
28.80859375,0.810692990469131
28.79638671875,0.8110012791450254
28.784181594848633,0.8113076445694642
28.77197265625,0.8116121004173733
28.759765625,0.8119146397234948
28.747560501098633,0.8122153573053733
28.7353515625,0.812514267011811
28.72314453125,0.8128113611975417
28.710935592651367,0.8131066917782912
28.698728561401367,0.8134002735797901
28.6865234375,0.813692080640239
28.674318313598633,0.8139822599719515
28.662111282348633,0.8142707179953195
28.64990234375,0.8145575479267247
28.637693405151367,0.8148427289749258
28.62548828125,0.8151263077454366
28.613279342651367,0.8154083209195789
28.601072311401367,0.8156887610667944
28.5888671875,0.8159676301323693
28.57666015625,0.8162450387587977
28.564453125,0.8165209052324371
28.55224609375,0.8167952934013528
28.5400390625,0.817068235295263
28.52783203125,0.8173397332174683
28.515625,0.8176098190349921
28.503419876098633,0.8178785027256482
28.491212844848633,0.8181457723977519
28.47900390625,0.8184117224046678
28.466796875,0.8186763055682944
28.45458984375,0.8189395788011431
28.4423828125,0.8192015147243846
28.430177688598633,0.8194621511180458
28.41796875,0.8197215305609348
28.405763626098633,0.8199796515965626
28.3935546875,0.8202365195048049
28.381345748901367,0.8204921503586033
28.369142532348633,0.8207465640648764
28.356931686401367,0.8209998078535863
28.344728469848633,0.8212518752034107
28.33251953125,0.821502723224016
28.320310592651367,0.8217524907681047
28.30810546875,0.8220010454516202
28.2958984375,0.822248518432265
28.28369140625,0.8224948867181058
28.271484375,0.8227401536745141
28.259275436401367,0.8229843428257931
28.247068405151367,0.8232274699625134
28.23486328125,0.8234695348236344
28.22265625,0.823710528333392
28.21044921875,0.8239505170135275
28.1982421875,0.8241895013655713
28.18603515625,0.8244274548800077
28.173830032348633,0.8246644438563417
28.161623001098633,0.8249004265678566
28.1494140625,0.8251354360959767
28.13720703125,0.8253695139759852
28.125,0.8256026275535192
28.11279296875,0.8258348059349061
28.1005859375,0.8260660523814467
28.088376998901367,0.8262964193904724
28.076171875,0.826525839663955
28.063966751098633,0.8267544197538476
28.0517578125,0.8269820586743997
28.03955078125,0.8272088669485447
28.027345657348633,0.827434814075414
28.01513671875,0.827659884910163
28.002927780151367,0.8278841203716221
27.99072265625,0.8281075643687306
27.978515625,0.8283301416553696
27.96630859375,0.8285519164052552
27.954099655151367,0.8287728857082616
27.94189453125,0.8289930384021611
27.929685592651367,0.8292124090355052
27.91748046875,0.8294310251371897
27.9052734375,0.8296488672875724
27.89306640625,0.8298659741625611
27.880859375,0.8300822868658079
27.86865234375,0.8302978640754575
27.8564453125,0.8305127089606017
27.844236373901367,0.8307268141924653
27.83203125,0.8309402011238743
27.81982421875,0.8311528795941739
27.807615280151367,0.8313648809270011
27.79541015625,0.8315761666935223
27.783205032348633,0.8317867538696064
27.77099609375,0.8319966593809993
27.7587890625,0.8322058752468515
27.746583938598633,0.8324144304051609
27.734373092651367,0.8326223004571464
27.722169876098633,0.8328295598664952
27.7099609375,0.8330361649889282
27.697751998901367,0.833242135828221
27.685546875,0.8334474001488118
27.67333984375,0.8336521399459055
27.661134719848633,0.8338561967675877
27.64892578125,0.8340596383924657
27.63671875,0.834262484717611
27.624513626098633,0.8344646807844017
27.6123046875,0.8346663776708146
27.60009765625,0.834867425777582
27.587892532348633,0.8350678524953008
27.57568359375,0.8352677277034205
27.5634765625,0.8354670686877811
27.55126953125,0.8356658146669622
27.539060592651367,0.835864014594117
27.52685546875,0.8360616340535524
27.514646530151367,0.8362587040957528
27.50244140625,0.8364551950702518
27.490234375,0.8366512004161338
27.47802734375,0.8368466437698727
27.4658203125,0.8370415521322901
27.453615188598633,0.8372359634419528
27.44140625,0.8374298291503147
27.42919921875,0.8376231689090997
27.416990280151367,0.8378160016203086
27.40478515625,0.8380083442944583
27.392578125,0.8382001510292725
27.38037109375,0.838391513323568
27.3681640625,0.8385823193000715
27.355958938598633,0.8387726891245891
27.34375,0.8389625742907002
27.33154296875,0.8391519421605723
27.3193359375,0.8393408669421167
27.307126998901367,0.8395293172181375
27.294921875,0.8397173124555315
27.28271484375,0.839904804281501
27.270509719848633,0.8400918935414986
27.258298873901367,0.8402784973590348
27.24609375,0.8404646254715925
27.23388671875,0.8406503108667162
27.2216796875,0.8408356156658476
27.20947265625,0.8410204287511829
27.197265625,0.8412048336028752
27.18505859375,0.8413887763267898
27.1728515625,0.8415723131146813
27.160642623901367,0.8417554643386791
27.148439407348633,0.8419381181131355
27.136232376098633,0.8421204098981055
27.1240234375,0.8423022917115974
27.11181640625,0.8424837201180296
27.099609375,0.8426648007646778
27.08740234375,0.8428454231266225
27.0751953125,0.8430256715340205
27.06298828125,0.843205544981082
27.05078125,0.8433849899136585
27.03857421875,0.8435640607201083
27.026369094848633,0.8437427663786768
27.014158248901367,0.8439210813509984
27.001953125,0.8440989585748494
26.98974609375,0.8442765424312412
26.977540969848633,0.8444536792631046
26.96533203125,0.8446304879731865
26.953126907348633,0.8448069114089347
26.94091796875,0.8449829805993272
26.9287109375,0.8451587160216646
26.916501998901367,0.8453340740029098
26.904298782348633,0.845509028686733
26.892087936401367,0.8456837290280997
26.879880905151367,0.8458579914667353
26.86767578125,0.846031920525484
26.85546875,0.8462055599238444
26.84326171875,0.8463787778917697
26.831056594848633,0.8465516916498583
26.81884765625,0.8467242828760674
26.806640625,0.8468965438615702
26.79443359375,0.8470684382299316
26.782228469848633,0.8472400030631715
26.77001953125,0.8474112762204379
26.757814407348633,0.8475821966758954
26.74560546875,0.8477528511459145
26.7333984375,0.8479230947886212
26.72119140625,0.8480930859191022
26.708982467651367,0.8482627100976191
26.69677734375,0.8484320671954994
26.6845703125,0.848601084501398
26.67236328125,0.8487698224355804
26.66015625,0.8489382283793593
26.64794921875,0.8491063555185888
26.6357421875,0.8492741512985393
26.623533248901367,0.8494417174518529
26.611328125,0.8496089114003909
26.59912109375,0.8497758205137458
26.586912155151367,0.8499424480605362
26.57470703125,0.8501088127657377
26.562501907348633,0.8502748464311148
26.55029296875,0.8504405659167152
26.538087844848633,0.8506060759573345
26.52587890625,0.8507712445624248
26.513673782348633,0.8509361794372434
26.50146484375,0.8511007734892468
26.4892578125,0.8512651533820809
26.47705078125,0.8514292335325526
26.46484375,0.8515930388955687
26.45263671875,0.8517565450870408
26.4404296875,0.851919832396852
26.42822265625,0.8520828195148706
26.416015625,0.8522455635936388
26.40380859375,0.8524080080232886
26.391603469848633,0.8525701863302461
26.37939453125,0.8527321356661051
26.3671875,0.852893819332644
26.35498046875,0.8530552611281073
26.342775344848633,0.8532163825709836
26.33056640625,0.8533773310799343
26.318359375,0.8535380148469092
26.30615234375,0.853698402559455
26.293943405151367,0.8538585684042398
26.281740188598633,0.8540184294703793
26.269529342651367,0.854178131791924
26.25732421875,0.854337529807754
26.2451171875,0.8544966808805655
26.232908248901367,0.854655638585125
26.220705032348633,0.8548142927518438
26.20849609375,0.8549727687070254
26.196290969848633,0.8551309619188363
26.18408203125,0.8552889569691591
26.171875,0.8554467174172031
26.159669876098633,0.8556042176664785
26.1474609375,0.855761520304405
26.13525390625,0.8559185358197087
26.123044967651367,0.8560753869830315
26.11083984375,0.8562319569982231
26.0986328125,0.8563883356644003
26.08642578125,0.856544449912927
26.07421875,0.8567003802770219
26.06201171875,0.856856070744173
26.0498046875,0.8570115503818244
26.03759765625,0.8571668209616792
26.025390625,0.8573218265884905
26.01318359375,0.8574766475857217
26.0009765625,0.8576312328661753
25.98876953125,0.8577856338349892
25.9765625,0.8579397994635131
25.96435546875,0.858093781098226
25.9521484375,0.8582475006095921
25.93994140625,0.8584010652279817
25.927734375,0.8585543920364813
25.915525436401367,0.8587075316236389
25.9033203125,0.8588604224538617
25.89111328125,0.8590131231812261
25.87890625,0.8591656426418003
25.86669921875,0.8593179555214371
25.8544921875,0.8594700587544927
25.842287063598633,0.8596219087484045
25.830080032348633,0.8597736505300382
25.81787109375,0.8599251522851528
25.8056640625,0.8600764791344656
25.79345703125,0.860227573406747
25.78125,0.8603784606656797
25.76904296875,0.8605291933830572
25.7568359375,0.860679694058849
25.74462890625,0.8608300151533299
25.732421875,0.8609802090182516
25.72021484375,0.8611301427737428
25.7080078125,0.8612798990116968
25.69580078125,0.8614294745899862
25.683595657348633,0.8615788531026359
25.67138671875,0.861728063995744
25.6591796875,0.861877051269552
25.64697265625,0.8620258601107883
25.634765625,0.8621745426551357
25.62255859375,0.8623229681944532
25.6103515625,0.8624712425270249
25.59814453125,0.8626193640977343
25.5859375,0.8627672811038436
25.57373046875,0.8629150221309299
25.5615234375,0.8630625321670238
25.54931640625,0.8632099167061732
25.537111282348633,0.8633571310503516
25.524900436401367,0.8635041505077276
25.5126953125,0.8636510107921266
25.50048828125,0.8637977138966568
25.488279342651367,0.863944208241561
25.47607421875,0.8640905134254688
25.4638671875,0.864236686807236
25.45166015625,0.8643826838685313
25.439453125,0.8645284797889716
25.42724609375,0.8646740996838593
25.4150390625,0.8648195952079197
25.40283203125,0.8649649165900859
25.390625,0.8651100606258295
25.378419876098633,0.8652550361293486
25.366209030151367,0.8653998716213277
25.35400390625,0.8655444964115743
25.341794967651367,0.8656889602348691
25.329591751098633,0.8658332683662224
25.3173828125,0.8659774600595841
25.30517578125,0.8661214591103298
25.29296875,0.8662652570090348
25.28076171875,0.8664089580685584
25.2685546875,0.8665524598968369
25.25634765625,0.8666958385940771
25.244140625,0.8668390183289045
25.23193359375,0.8669820487167099
25.2197265625,0.8671249068283835
25.20751953125,0.8672676438732514
25.195314407348633,0.867410186104061
25.18310546875,0.8675526215325442
25.1708984375,0.8676948887282975
25.15869140625,0.8678369842184992
25.146484375,0.8679789573903428
25.13427734375,0.8681207327706613
25.1220703125,0.8682624123132028
25.10986328125,0.8684038943074454
25.09765625,0.8685452543364242
25.08544921875,0.8686864170854368
25.0732421875,0.8688274597549844
25.06103515625,0.86896835447677
25.048828125,0.8691091047404019
25.03662109375,0.8692496827413151
25.0244140625,0.8693901654853046
25.01220703125,0.869530476155883
25.0,0.8696706427538768
24.98779296875,0.8698106375214358
24.9755859375,0.869950511169645
24.96337890625,0.8700902410343972
24.951171875,0.8702298238034112
24.93896484375,0.8703692629817054
24.9267578125,0.8705085552537184
24.91455078125,0.8706477284982231
24.90234375,0.8707867079933224
24.890138626098633,0.8709255965141597
24.8779296875,0.8710643557831163
24.86572265625,0.8712029251576606
24.853515625,0.8713413759215037
24.84130859375,0.871479706420468
24.8291015625,0.871617868155333
24.81689453125,0.8717559357679726
24.8046875,0.87189380884369
24.79248046875,0.872031587936907
24.7802734375,0.8721692246168872
24.76806640625,0.87230669133672
24.755859375,0.8724440642587943
24.74365234375,0.8725813192166842
24.7314453125,0.8727183544249161
24.71923828125,0.8728553478015368
24.70703125,0.8729921475367052
24.69482421875,0.8731288296417131
24.6826171875,0.8732653924533089
24.67041015625,0.8734018136437697
24.658203125,0.8735380915879214
24.64599609375,0.8736742762646927
24.6337890625,0.8738102920444198
24.621583938598633,0.8739461975038196
24.609376907348633,0.8740819548849631
24.59716796875,0.8742176140730875
24.584962844848633,0.8743531167862868
24.572751998901367,0.8744885111204441
24.560546875,0.8746237543146566
24.54833984375,0.8747588995524975
24.5361328125,0.8748939040793902
24.52392578125,0.8750287645334685
24.51171875,0.8751635101358005
24.49951171875,0.8752981392157425
24.4873046875,0.8754326501003216
24.47509765625,0.8755670189490081
24.462890625,0.8757012475901393
24.45068359375,0.8758354094683284
24.4384765625,0.8759693800729988
24.426271438598633,0.8761032396980472
24.4140625,0.8762369968826851
24.40185546875,0.8763706449142502
24.3896484375,0.8765041497214987
24.37744140625,0.8766375148714036
24.365234375,0.8767707642421027
24.35302734375,0.8769039471653508
24.3408203125,0.8770369651282179
24.32861328125,0.8771698657493529
24.31640625,0.8773026508248529
24.30419921875,0.8774352966971185
24.2919921875,0.8775678271668939
24.27978515625,0.8777002914144069
24.267578125,0.8778325658115107
24.25537109375,0.8779647740780996
24.2431640625,0.8780968434994101
24.23095703125,0.8782287724304428
24.21875,0.8783606099625267
24.20654296875,0.8784923342456515
24.1943359375,0.8786239418526919
24.18212890625,0.8787554109973197
24.169921875,0.8788868142466288
24.15771484375,0.8790180538448343
24.1455078125,0.8791491534757724
24.13330078125,0.8792801873372559
24.12109375,0.8794111318887979
24.10888671875,0.8795418878675064
24.0966796875,0.8796726034235945
24.08447265625,0.8798031558327915
24.072263717651367,0.8799336123587067
24.06005859375,0.8800639412136673
24.0478515625,0.880194176026438
24.03564453125,0.8803242949235233
24.0234375,0.8804542762901517
24.01123046875,0.8805841922012188
23.9990234375,0.8807139455538874
23.98681640625,0.8808436335189797
23.974609375,0.8809731842159483
23.96240234375,0.8811026211004701
23.9501953125,0.8812319675774718
23.93798828125,0.8813611770016837
23.92578125,0.8814903211839997
23.91357421875,0.8816193033720341
23.9013671875,0.881748197091287
23.88916015625,0.8818770238931916
23.876953125,0.882005715705004
23.86474609375,0.8821342441058571
23.8525390625,0.8822627574675758
23.84033203125,0.8823911092906597
23.828125,0.8825193229285105
23.81591796875,0.8826474716077871
23.8037109375,0.8827755321188396
23.79150390625,0.882903456365259
23.779296875,0.883031290781949
23.76708984375,0.883158989077802
23.7548828125,0.883286574493621
23.74267578125,0.8834141199958887
23.73046875,0.8835414797924223
23.71826171875,0.8836687766137266
23.7060546875,0.8837959838365592
23.69384765625,0.8839230553208972
23.681640625,0.8840500621269088
23.66943359375,0.8841769563694954
23.6572265625,0.8843037150649047
23.64501953125,0.8844303613408544
23.6328125,0.8845569430522113
23.62060546875,0.8846833894077711
23.6083984375,0.8848097712434347
23.59619140625,0.8849360178427477
23.583984375,0.8850621522707943
23.57177734375,0.8851882222584435
23.5595703125,0.8853141819048183
23.547361373901367,0.8854400228276779
23.53515625,0.8855657862886718
23.52294921875,0.8856914099755424
23.5107421875,0.8858169711080967
23.49853515625,0.8859424186264329
23.486328125,0.8860677561131044
23.47412109375,0.8861930047219674
23.4619140625,0.8863181433942636
23.44970703125,0.8864431704278888
23.4375,0.8865681332814275
23.42529296875,0.8866929845661787
23.4130859375,0.8868177015485504
23.40087890625,0.8869423561941925
23.388671875,0.8870669221944105
23.37646484375,0.8871913540596639
23.3642578125,0.8873156746305629
23.35205078125,0.8874399556875477
23.33984375,0.8875641027770752
23.32763671875,0.887688185879015
23.3154296875,0.8878121106754677
23.30322265625,0.8879359960002797
23.291015625,0.8880597475975056
23.27880859375,0.8881834352986756
23.2666015625,0.888306964983388
23.25439453125,0.8884304552390692
23.2421875,0.8885538363915263
23.22998046875,0.8886771049711116
23.2177734375,0.8888002889273513
23.20556640625,0.8889233847533602
23.193359375,0.8890463960025499
23.18115234375,0.8891692948446225
23.1689453125,0.889292084870244
23.15673828125,0.8894147886725925
23.14453125,0.8895374045092068
23.13232421875,0.8896599116606372
23.1201171875,0.8897823551788627
23.10791015625,0.8899046658336957
23.095703125,0.8900269129017115
23.08349609375,0.890149027226645
23.0712890625,0.8902710797773932
23.05908203125,0.8903930445738747
23.046875,0.8905149009836992
23.03466796875,0.8906366697103508
