Freq, Coherency
49.91455078125,-0.030867753231291328
49.90234375,-0.032187240362963825
49.89013671875,-0.03350185338063571
49.8779296875,-0.03481194730986699
49.86572265625,-0.03611783956232836
49.853515625,-0.03741829086388879
49.841312408447266,-0.03871376303129376
49.8291015625,-0.04000422806331314
49.81689453125,-0.0412888226121413
49.8046875,-0.04256775327819262
49.792484283447266,-0.0438409320423071
49.780277252197266,-0.045108478742709096
49.76806640625,-0.04636969204482208
49.755859375,-0.047624095356002746
49.74365234375,-0.04887241551699845
49.7314453125,-0.050113467243922696
49.71923828125,-0.05134755745291843
49.70703125,-0.05257452521131396
49.69482421875,-0.05379417189385897
49.6826171875,-0.0550068191948374
49.67041015625,-0.05621131541930874
49.658203125,-0.05740795883925476
49.64599609375,-0.05859706451580789
49.6337890625,-0.059777971024822706
49.62158203125,-0.060949566663362466
49.609375,-0.0621135637060946
49.59716796875,-0.06326837918458232
49.5849609375,-0.06441478090925887
49.57275390625,-0.06555213022675835
49.560546875,-0.06667935754467404
49.54833984375,-0.0677981100048085
49.5361328125,-0.06890687385370144
49.52392578125,-0.07000635995668936
49.51171875,-0.07109554935322984
49.49951171875,-0.07217470414312396
49.4873046875,-0.07324410595764337
49.47509765625,-0.07430273821595551
49.462890625,-0.07535086436780422
49.450687408447266,-0.07638843473076065
49.4384765625,-0.0774158365762757
49.42626953125,-0.07843113881719092
49.4140625,-0.07943614695736824
49.40185546875,-0.08042989187996985
49.3896484375,-0.08141144224829794
49.37744140625,-0.0823822314941303
49.365234375,-0.08334093565696957
49.35302734375,-0.08428781661945646
49.3408203125,-0.0852230964588823
49.32861328125,-0.08614588557517072
49.31640625,-0.08705643633814104
49.30419921875,-0.08795496155827069
49.2919921875,-0.08884060638535045
49.27978515625,-0.08971395820860607
49.267578125,-0.09057452543963318
49.255367279052734,-0.09142176724365508
49.243167877197266,-0.0922562020703173
49.23095703125,-0.09307726534734945
49.218753814697266,-0.09388520015649453
49.206546783447266,-0.09467998456267582
49.1943359375,-0.0954608652784207
49.182132720947266,-0.09622825534902313
49.169925689697266,-0.09698213293187115
49.15771484375,-0.0977217835287034
49.145503997802734,-0.09844776186065629
49.13330078125,-0.0991594962734551
49.12109375,-0.09985698229346661
49.10888671875,-0.1005404568002758
49.0966796875,-0.10120926284197967
49.08447265625,-0.1018638427551913
49.072265625,-0.10250357212899013
49.06005859375,-0.10312861315491799
49.0478515625,-0.10373912143131382
49.03564453125,-0.10433451425559977
49.0234375,-0.10491494304150947
49.01123046875,-0.10548055115875261
48.9990234375,-0.1060307984034999
48.98681640625,-0.10656582520619774
48.974609375,-0.10708576251183402
48.96240234375,-0.10758991181614154
48.9501953125,-0.10807919844431622
48.93798828125,-0.10855256173750605
48.92578125,-0.10901032103394323
48.913578033447266,-0.10945245046391293
48.9013671875,-0.10987910026106697
48.889156341552734,-0.11028959980698427
48.876953125,-0.1106843038447834
48.86474609375,-0.11106319238877341
48.852542877197266,-0.11142582591987688
48.84033203125,-0.11177264013761411
48.828125,-0.11210324279446165
48.81591796875,-0.112417698081116
48.8037109375,-0.11271606924059213
48.79150390625,-0.11299806951301845
48.779296875,-0.11326388285044066
48.76708984375,-0.11351334893086823
48.7548828125,-0.11374624685435514
48.742679595947266,-0.11396284818579426
48.73046875,-0.11416304257626762
48.71826171875,-0.11434668965112997
48.7060546875,-0.11451388992807617
48.69384765625,-0.11466447942514771
48.681640625,-0.11479850436345014
48.66943359375,-0.11491598336962455
48.6572265625,-0.11501680109087922
48.64501953125,-0.1151010205758044
48.6328125,-0.11516858116272821
48.62060546875,-0.11521943469422256
48.6083984375,-0.11525365139730134
48.59619140625,-0.11527117453581469
48.583984375,-0.11527200342050535
48.57177734375,-0.1152561350698543
48.5595703125,-0.11522357680779438
48.54736328125,-0.11517432564833298
48.53515625,-0.11510835515166085
48.52294921875,-0.11502572386545773
48.5107421875,-0.11492637249601294
48.49853515625,-0.11481039084870352
48.486328125,-0.11467775642146069
48.47412109375,-0.11452841942295532
48.4619140625,-0.11436251705885551
48.44970703125,-0.11418001456110823
48.4375,-0.1139808487742725
48.42529296875,-0.11376520416133096
48.4130859375,-0.1135330337242959
48.40087890625,-0.11328426101581997
48.388671875,-0.11301911969992533
48.37646484375,-0.11273754415562044
48.3642578125,-0.11243945117831954
48.35205078125,-0.11212511945642403
48.33984375,-0.11179433528089386
48.32763671875,-0.11144726668080306
48.3154296875,-0.11108425820666344
48.30322265625,-0.11070477458562511
48.291015625,-0.11030931263066047
48.27880859375,-0.10989778106598336
48.2666015625,-0.10947005560407423
48.25439453125,-0.10902635788753015
48.2421875,-0.10856693779697763
48.22998046875,-0.10809167726170814
48.2177734375,-0.10760064853088967
48.205570220947266,-0.10709386702122925
48.193359375,-0.10657111577455937
48.18115234375,-0.10603338759962191
48.1689453125,-0.10547973089740897
48.15673828125,-0.10491064805544105
48.144527435302734,-0.10432650830326766
48.13232421875,-0.1037270081923797
48.1201171875,-0.10311213918323497
48.10791015625,-0.10248243004555524
48.095703125,-0.10183771662718855
48.083499908447266,-0.10117803636062546
48.0712890625,-0.10050338586286126
48.059085845947266,-0.09981415481764569
48.046875,-0.09911042002501258
48.03466796875,-0.09839180140217148
48.0224609375,-0.0976587414630953
48.01025390625,-0.09691194891979842
47.998046875,-0.0961503273839279
47.98583984375,-0.0953745782772072
47.9736328125,-0.09458513355851395
47.96142578125,-0.09378146330823212
47.94921875,-0.09296432581780527
47.93701171875,-0.09213352550525819
47.9248046875,-0.09128916607896781
47.91259765625,-0.09043102876658289
47.900390625,-0.08955992393719281
47.88818359375,-0.08867562190292522
47.8759765625,-0.0877778944062104
47.86376953125,-0.08686758944001022
47.8515625,-0.08594409676684166
47.83935546875,-0.08500829597241326
47.8271484375,-0.084059939751173
47.81494140625,-0.08309878468774709
47.802734375,-0.08212612870591851
47.79052734375,-0.08114015098621481
47.7783203125,-0.08014255248216397
47.76611328125,-0.07913390073640929
47.75390625,-0.07811271680711045
47.74169921875,-0.07708036497989357
47.7294921875,-0.07603659607852938
47.71728515625,-0.07498111977583584
47.705078125,-0.0739145073232069
47.69287109375,-0.07283778049577919
47.6806640625,-0.07174936096222875
47.66845703125,-0.07065026496926935
47.65625,-0.06954154464962987
47.64404296875,-0.06842157497415194
47.6318359375,-0.0672918632740013
47.619625091552734,-0.06615175146906767
47.607421875,-0.06500156525283703
47.59521484375,-0.06384269761213716
47.5830078125,-0.06267335258564966
47.57080078125,-0.06149509573957956
47.55859375,-0.06030716697224087
47.54638671875,-0.059110662254260524
47.5341796875,-0.05790480961811365
47.52197265625,-0.05669123503632437
47.509765625,-0.055468160510738836
47.497562408447266,-0.054237119330982186
47.4853515625,-0.05299763417625744
47.47314453125,-0.05175003479649145
47.4609375,-0.05049511593839024
47.44873046875,-0.04923257248522932
47.4365234375,-0.047962565363223124
47.42431640625,-0.04668477666187667
47.412109375,-0.04540041611533505
47.39990234375,-0.044108625563517495
47.3876953125,-0.04281115600560902
47.37548828125,-0.041506107186253846
47.36328125,-0.040194707024831536
47.35107421875,-0.03887820481362101
47.3388671875,-0.037554144953931876
47.326656341552734,-0.03622494044526738
47.314453125,-0.0348909905769078
47.30224609375,-0.03355068332182997
47.2900390625,-0.03220570420428691
47.27783203125,-0.030855725090458044
47.265625,-0.029500378795801117
47.253421783447266,-0.02814083279236601
47.2412109375,-0.026777104049619766
47.22900390625,-0.025409018529405945
47.216796875,-0.024035806546034218
47.20458984375,-0.022660408963791286
47.1923828125,-0.021280267009632654
47.18017578125,-0.019896684043084045
47.16796875,-0.018510975028243632
47.15576171875,-0.01712055804832066
47.1435546875,-0.01572840686831187
47.13134765625,-0.014333628682466239
47.119140625,-0.012936402757048585
47.10693359375,-0.01153638432354933
47.094722747802734,-0.010135020005157633
47.08251953125,-0.008731015550685723
47.0703125,-0.007326071887740219
47.05810546875,-0.005919692003476369
47.0458984375,-0.00451152976190786
47.03369140625,-0.003103480710228088
47.021484375,-0.0016934842536689477
47.00927734375,-2.828761924653405E-4
46.9970703125,0.0011275668934535073
46.98486328125,0.0025387855090969235
46.97265625,0.003949441678393768
46.96044921875,0.005359881473415974
46.9482421875,0.006770483871168357
46.93603515625,0.008180472028168217
46.923828125,0.009588509784684476
46.91162109375,0.01099665724177732
46.8994140625,0.012403018287566916
46.88720703125,0.013807938367550898
46.875,0.015211793925037291
46.862789154052734,0.01661369116843203
46.8505859375,0.0180132178929428
46.83837890625,0.01941039230057351
46.826171875,0.020805674679542766
46.81396484375,0.02219718809602885
46.8017578125,0.023586967994139802
46.78955078125,0.024973692367896688
46.77734375,0.02635659905854989
46.76513671875,0.027736061031386584
46.7529296875,0.02911241357827116
46.74072265625,0.03048435081725262
46.728515625,0.031852242965402004
46.71630859375,0.033216421954292814
46.7041015625,0.03457559329409706
46.69189453125,0.03593066203525761
46.6796875,0.03728034211429303
46.66748046875,0.03862496632843275
46.6552734375,0.0399648918068201
46.64306640625,0.04129884668170575
46.630859375,0.042627160095641034
46.618656158447266,0.04395029697357585
46.6064453125,0.04526718591135692
46.59423828125,0.046576922059505005
46.58203125,0.047881307580984314
46.56982421875,0.049179096228840605
46.5576171875,0.050469576016008454
46.54541015625,0.05175309623103325
46.533203125,0.05302944910623058
46.52099609375,0.0542989715995145
46.5087890625,0.055560958484081886
46.49658203125,0.056814220437045045
46.484375,0.05806058927153598
46.47216796875,0.0592988715525951
46.4599609375,0.06052838855586183
46.44775390625,0.06174947366792848
46.435546875,0.06296241898866907
46.42333984375,0.06416559510716396
46.4111328125,0.06536123386146746
46.39892578125,0.06654676798005069
46.38671875,0.06772296867969307
46.37451171875,0.06889014412581468
46.3623046875,0.07004764354630331
46.35009765625,0.07119437868766268
46.337890625,0.07233202492156585
46.32568359375,0.07345948880102188
46.3134765625,0.07457571102252618
46.30126953125,0.07568232217542722
46.2890625,0.0767782575079101
46.27685546875,0.07786291752476703
46.2646484375,0.07893659750692711
46.25244140625,0.0799995511733168
46.240234375,0.08105076788908121
46.22802734375,0.08209053409798978
46.2158203125,0.08311909478926863
46.20361328125,0.0841354718175372
46.19140625,0.08514033973394754
46.17919921875,0.0861327424965724
46.1669921875,0.08711292772479629
46.15478515625,0.08808114839387085
46.142578125,0.08903648308433113
46.13037109375,0.08997917046911279
46.1181640625,0.09090945307017971
46.10595703125,0.09182680763460013
46.09375,0.09273037662243312
46.08154296875,0.09362147872592987
46.0693359375,0.09449924958395138
46.05712890625,0.095363210672898
46.044921875,0.09621393446474935
46.03271484375,0.09705061059642171
46.0205078125,0.09787378012146697
46.00830078125,0.09868265905804605
45.99609375,0.099477469548019
45.98388671875,0.10025839420545285
45.9716796875,0.10102438692930953
45.95947265625,0.10177686107318488
45.947265625,0.10251419323875927
45.93505859375,0.10323687138085652
45.9228515625,0.10394479837242399
45.91064453125,0.10463813491774475
45.8984375,0.10531621986322504
45.88623046875,0.1059795013336821
45.8740234375,0.10662760102978172
45.86181640625,0.10725991877763998
45.849609375,0.10787737575345997
45.83740234375,0.10847936385352831
45.8251953125,0.10906555705208416
45.81298828125,0.10963611812138926
45.80078125,0.11019117329842432
45.78857421875,0.11073019231044322
45.7763671875,0.11125332532688842
45.76416015625,0.1117606867281941
45.751953125,0.11225179139547915
45.73974609375,0.11272677668947902
45.7275390625,0.1131857449754135
45.71533203125,0.113628256956473
45.703125,0.11405460332782769
45.69091796875,0.11446453508910182
45.6787109375,0.11485767900133133
45.66650390625,0.11523460593225388
45.654296875,0.11559479410046283
45.64208984375,0.11593833753276553
45.629878997802734,0.11626541372891705
45.61767578125,0.11657552945682936
45.60546875,0.11686870493935379
45.59326171875,0.11714526513310956
45.5810546875,0.11740492297456177
45.56884765625,0.1176474481381663
45.556640625,0.11787319096275681
45.54443359375,0.11808191238119026
45.5322265625,0.11827350331380347
45.52001953125,0.1184480869303061
45.5078125,0.11860549292069279
45.49560546875,0.11874581916765331
45.483394622802734,0.11886891844741597
45.47119140625,0.11897489757471084
45.458984375,0.11906362192037105
45.44677734375,0.11913512888311978
45.4345703125,0.11918940461389053
45.42236328125,0.11922645860036345
45.41015625,0.11924621739053545
45.39794921875,0.11924872586152979
45.3857421875,0.11923394886334363
45.37353515625,0.11920192389521773
45.361328125,0.11915259701008547
45.34912109375,0.11908601943757562
45.3369140625,0.1190021439099176
45.32470703125,0.11890104332731453
45.3125,0.11878264781200881
45.30029296875,0.11864706517547254
45.2880859375,0.11849426460160369
45.27587890625,0.11832419349279084
45.263671875,0.11813700866362818
45.25146484375,0.11793258067312862
45.2392578125,0.1177110985148842
45.22705078125,0.11747241337350783
45.21484375,0.1172168522698182
45.20263671875,0.11694403664093476
45.1904296875,0.11665420002175728
45.17822265625,0.11634750768958897
45.166015625,0.1160237505702082
45.15380859375,0.11568323085232061
45.1416015625,0.11532587071122279
45.12939453125,0.11495155946750077
45.1171875,0.1145604883911108
45.10498046875,0.11415304389776881
45.0927734375,0.11372862527203176
45.08056640625,0.11328761038458407
45.068359375,0.11283043284359782
45.05615234375,0.11235641920398301
45.0439453125,0.11186599462250578
45.03173828125,0.11135922568585103
45.01953125,0.11083660809976448
45.00732421875,0.11029737272961006
44.9951171875,0.10974200697180508
44.98291015625,0.10917082192302163
44.970703125,0.10858366920833804
44.95849609375,0.10798039077920202
44.9462890625,0.1073618038877104
44.93408203125,0.10672699908996804
44.921875,0.1060765551005208
44.90966796875,0.1054108351717664
44.8974609375,0.10472939121151971
44.88525390625,0.10403286493696198
44.873046875,0.103320798717669
44.86083984375,0.10259386371525153
44.8486328125,0.10185186937168189
44.83642578125,0.10109462045398963
44.82421875,0.10032283103846072
44.81201171875,0.09953629840113301
44.7998046875,0.09873481666180538
44.78759765625,0.09791914191608722
44.775390625,0.0970887263568359
44.76318359375,0.09624435323117361
44.7509765625,0.09538582018839357
44.73876953125,0.09451288410919521
44.7265625,0.09362601312130098
44.71435546875,0.09272569287864485
44.7021484375,0.09181170713751102
44.68994140625,0.09088379829699324
44.677734375,0.08994284227726326
44.66552734375,0.08898861273276565
44.6533203125,0.08802084158176604
44.64111328125,0.08704004994124803
44.62890625,0.0860471797752722
44.61669921875,0.08504077473757375
44.6044921875,0.08402177028300754
44.59228515625,0.0829903105584312
44.580078125,0.08194738503298113
44.56787109375,0.08089146426937067
44.5556640625,0.0798235315279634
44.54345703125,0.07874461044024945
44.53125,0.07765311901818338
44.51904296875,0.07655007491949388
44.5068359375,0.07543608908908808
44.49462890625,0.07431041565484693
44.482421875,0.07317411868951777
44.47021484375,0.0720264554000052
44.4580078125,0.07086851105388005
44.44580078125,0.06969997772901451
44.43359375,0.06852055950138973
44.42138671875,0.06733137187370082
44.4091796875,0.06613209835886748
44.39697265625,0.06492243593634317
44.384765625,0.06370352891546119
44.37255859375,0.06247456191425966
44.3603515625,0.0612366974114171
44.34814453125,0.05998912694639381
44.3359375,0.05873303095092972
44.32373046875,0.05746807454851519
44.3115234375,0.05619393968887452
44.29931640625,0.054911832129898405
44.287109375,0.053620894688799506
44.27490234375,0.05232234895570576
44.2626953125,0.051015879059506754
44.25048828125,0.04970112685956163
44.23828125,0.048378809215345694
44.22607421875,0.04704964593062797
44.2138671875,0.04571331337067265
44.20166015625,0.0443699819496671
44.189453125,0.0430193160373637
44.17724609375,0.04166259444156775
44.1650390625,0.040298910745178426
44.15283203125,0.03892955605122768
44.140625,0.03755308867867576
44.12841796875,0.03617245702995319
44.1162109375,0.034785093147833776
44.10400390625,0.0333923042214676
44.091796875,0.03199541570957278
44.07958984375,0.030592382157822423
44.0673828125,0.029184526501945134
44.05517578125,0.027772051321955666
44.04296875,0.02635629999050788
44.03076171875,0.024935199674428286
44.0185546875,0.023510091641561696
44.00634765625,0.022082330672205986
43.994140625,0.020649826528969215
43.98193359375,0.019213932204516816
43.9697265625,0.017776012131141196
43.95751953125,0.01633338719587297
43.9453125,0.014889142906019856
43.93310546875,0.013441765219037454
43.9208984375,0.011993202863063641
43.90869140625,0.01054133556398397
43.896484375,0.009087536830808611
43.88427734375,0.00763260742699549
43.8720703125,0.006175576801241381
43.85986328125,0.004717825969035888
43.84765625,0.003258405539980761
43.83544921875,0.001798698940503341
43.8232421875,3.3831391327397416E-4
43.81103515625,-0.0011231082863800302
43.798828125,-0.0025847750901111213
43.78662109375,-0.004045300551200213
43.7744140625,-0.005506821805499052
43.76220703125,-0.006967952750910274
43.75,-0.008427889355932777
43.73779296875,-0.009887024411080442
43.7255859375,-0.011345715040867812
43.71337890625,-0.012803168862394325
43.701171875,-0.01425858414672772
43.68896484375,-0.015712352737181853
43.6767578125,-0.017164829691291517
43.66455078125,-0.018614637375990808
43.65234375,-0.02006216632726887
43.64013671875,-0.021507769510614696
43.6279296875,-0.022950660349884158
43.61572265625,-0.02439004561583824
43.603515625,-0.025826884200363946
43.59130859375,-0.02725981288298783
43.5791015625,-0.028689184307013095
43.56689453125,-0.030114813084018633
43.5546875,-0.03153704550614861
43.54248046875,-0.03295510639511545
43.5302734375,-0.03436821666499848
43.51806640625,-0.035777317279344266
43.505859375,-0.03718107089119767
43.49365234375,-0.03858039003294013
43.4814453125,-0.0399733931400479
43.46923828125,-0.0413621170787436
43.45703125,-0.042745237016726764
43.44482421875,-0.04412199356577346
43.4326171875,-0.045492758791400585
43.42041015625,-0.04685786352689305
43.408203125,-0.048216561620056275
43.39599609375,-0.049568107384780596
43.3837890625,-0.05091286635753073
43.37158203125,-0.05225116228383368
43.359375,-0.05358226286045874
43.34716796875,-0.05490491279695609
43.3349609375,-0.05622156738740888
43.32275390625,-0.05752940140144047
43.310546875,-0.05882978912783936
43.29833984375,-0.06012098311073544
43.2861328125,-0.06140537941907531
43.27392578125,-0.06268022119338405
43.26171875,-0.0639463363572836
43.24951171875,-0.06520405761671619
43.2373046875,-0.06645218987391487
43.22509765625,-0.06769154312524743
43.212890625,-0.06892093979935962
43.20068359375,-0.07014071347471486
43.1884765625,-0.07135115470937015
43.17626953125,-0.07255159808662093
43.1640625,-0.07374138617967546
43.15185546875,-0.07492084213718471
43.1396484375,-0.07609024599429536
43.12744140625,-0.07724895397916344
43.115234375,-0.07839633185890575
43.10302734375,-0.07953269159135085
43.0908203125,-0.08065830202748482
43.07861328125,-0.08177210161816037
43.06640625,-0.08287480363336523
43.05419921875,-0.08396538529055139
43.0419921875,-0.08504454455834469
43.02978515625,-0.08611083296119734
43.017578125,-0.08716580734857846
43.00537109375,-0.08820844925554033
42.9931640625,-0.08923860416606214
42.98095703125,-0.09025530695682424
42.96875,-0.09126004174043524
42.95654296875,-0.09225183677134115
42.9443359375,-0.09323054472165816
42.93212890625,-0.09419524979050697
