Freq, Coherency
49.91455078125,0.045645173003973936
49.90234375,0.04653915771145935
49.89013671875,0.047213405761927445
49.8779296875,0.047664639175834904
49.86572265625,0.047890768143225106
49.853515625,0.047890606846441676
49.841312408447266,0.04766410821536978
49.8291015625,0.047212101547415425
49.81689453125,0.046537034106236344
49.8046875,0.04564218387563029
49.792484283447266,0.04453098122807479
49.780277252197266,0.04320871536104818
49.76806640625,0.041682386432622884
49.755859375,0.03995803738691156
49.74365234375,0.03804486796816665
49.7314453125,0.03595164827155619
49.71923828125,0.033687771517664576
49.70703125,0.03126438469465651
49.69482421875,0.028692374793225825
49.6826171875,0.025983328381225374
49.67041015625,0.023151867261913976
49.658203125,0.020209976857213412
49.64599609375,0.0171709598754454
49.6337890625,0.014050880833418008
49.62158203125,0.010863965155740672
49.609375,0.0076236394001457895
49.59716796875,0.004347387894088934
49.5849609375,0.0010488340378169772
49.57275390625,-0.0022555027225931615
49.560546875,-0.005547775539376646
49.54833984375,-0.008816869597550056
49.5361328125,-0.012043827455442946
49.52392578125,-0.01521714547600009
49.51171875,-0.018315965850792863
49.49951171875,-0.02133106889870972
49.4873046875,-0.024246051038474752
49.47509765625,-0.02704602679729853
49.462890625,-0.029719185521023494
49.450687408447266,-0.032252490586124595
49.4384765625,-0.034635421489094285
49.42626953125,-0.03685356136020706
49.4140625,-0.03889888042262734
49.40185546875,-0.04076075899111182
49.3896484375,-0.0424297297048557
49.37744140625,-0.04389877437404755
49.365234375,-0.045161036248495996
49.35302734375,-0.04620967883063904
49.3408203125,-0.04704051318220487
49.32861328125,-0.04764910150613915
49.31640625,-0.048032404027108844
49.30419921875,-0.04818885265600721
49.2919921875,-0.048117455673698906
49.27978515625,-0.047818493530243616
49.267578125,-0.047293322872117044
49.255367279052734,-0.046544442837550694
49.243167877197266,-0.04557545404200288
49.23095703125,-0.04439061169706002
49.218753814697266,-0.04299549422256695
49.206546783447266,-0.041396669018253715
49.1943359375,-0.039601836363236755
49.182132720947266,-0.037619771597201875
49.169925689697266,-0.03545872138988391
49.15771484375,-0.03312964624021249
49.145503997802734,-0.030643341308120593
49.13330078125,-0.02801136088592721
49.12109375,-0.02524618957628407
49.10888671875,-0.022360932591330165
49.0966796875,-0.019369203870879467
49.08447265625,-0.016285124275729625
49.072265625,-0.013123602068462765
49.06005859375,-0.00989888165666098
49.0478515625,-0.006626536169574419
49.03564453125,-0.003322388407431865
49.0234375,-1.337792457878277E-6
49.01123046875,0.0033205573568088564
48.9990234375,0.006627230417938826
48.98681640625,0.009903758681470788
48.974609375,0.013134279673960712
48.96240234375,0.01630316451879585
48.9501953125,0.01939729774612646
48.93798828125,0.02239809397438458
48.92578125,0.02529573236221518
48.913578033447266,0.02807280477731154
48.9013671875,0.030720224723740138
48.889156341552734,0.03322122634200765
48.876953125,0.03556591969690088
48.86474609375,0.03774307443914645
48.852542877197266,0.03974224702453505
48.84033203125,0.04155389125457483
48.828125,0.04317007701759506
48.81591796875,0.04458152041190223
48.8037109375,0.04578340119300298
48.79150390625,0.04676895406877968
48.779296875,0.04753327560209159
48.76708984375,0.04807312717544223
48.7548828125,0.04838551461663713
48.742679595947266,0.04846933434283049
48.73046875,0.04832391667848429
48.71826171875,0.04794994432172836
48.7060546875,0.04734891896296106
48.69384765625,0.046523700546413006
48.681640625,0.04547858965430409
48.66943359375,0.044218043078568935
48.6572265625,0.042747622179110364
48.64501953125,0.041074558776574205
48.6328125,0.03920671762162254
48.62060546875,0.03715433687493491
48.6083984375,0.03492430332340591
48.59619140625,0.03252845094175736
48.583984375,0.02997910338834522
48.57177734375,0.027286282963517927
48.5595703125,0.02446366606308665
48.54736328125,0.021525749606287885
48.53515625,0.018484975906051256
48.52294921875,0.015355111671286958
48.5107421875,0.012151793361217928
48.49853515625,0.008891448514432715
48.486328125,0.005586930102951518
48.47412109375,0.0022551324238619494
48.4619140625,-0.0010868744872361787
48.44970703125,-0.0044259033920848985
48.4375,-0.007744843393850808
48.42529296875,-0.01102670607566428
48.4130859375,-0.01425852945924337
48.40087890625,-0.01742371222493368
48.388671875,-0.020507260868568317
48.37646484375,-0.023493412799978543
48.3642578125,-0.026371157427414974
48.35205078125,-0.02912402511765383
48.33984375,-0.03173979166133894
48.32763671875,-0.03420604512192517
48.3154296875,-0.036510206386248245
48.30322265625,-0.038643140059463746
48.291015625,-0.040593044446695224
48.27880859375,-0.04235264830698416
48.2666015625,-0.04391177644889437
48.25439453125,-0.045263527402891475
48.2421875,-0.04640145199223378
48.22998046875,-0.04732002350998108
48.2177734375,-0.048015038615948955
48.205570220947266,-0.04848293068372921
48.193359375,-0.04872178908842126
48.18115234375,-0.04873000482764151
48.1689453125,-0.04850769567347119
48.15673828125,-0.048055645056398665
48.144527435302734,-0.04737625609824323
48.13232421875,-0.046472787438622626
48.1201171875,-0.045348597298699694
48.10791015625,-0.044009830307633474
48.095703125,-0.04246265660201635
48.083499908447266,-0.0407145766505286
48.0712890625,-0.03877168418883186
48.059085845947266,-0.036646611594758856
48.046875,-0.034346487658852495
48.03466796875,-0.03188369623049138
48.0224609375,-0.02926864353012383
48.01025390625,-0.026516253776603577
47.998046875,-0.023635799056972693
47.98583984375,-0.020643564386148425
47.9736328125,-0.017551988576099475
47.96142578125,-0.01437651686464972
47.94921875,-0.011134374523502731
47.93701171875,-0.007836508036581867
47.9248046875,-0.004502953055011605
47.91259765625,-0.0011449731989256638
47.900390625,0.002219295348174325
47.88818359375,0.005572614829819477
47.8759765625,0.008900797962250965
47.86376953125,0.0121886516909527
47.8515625,0.015419650354493828
47.83935546875,0.018577597793595677
47.8271484375,0.021648131132699804
47.81494140625,0.02461819219385176
47.802734375,0.027471375458756234
47.79052734375,0.030197423048876328
47.7783203125,0.032780115485132794
47.76611328125,0.0352066969455543
47.75390625,0.03746892108285412
47.74169921875,0.03955355760167584
47.7294921875,0.04145232662380697
47.71728515625,0.04315533700251163
47.705078125,0.044654475341349205
47.69287109375,0.04594212829797305
47.6806640625,0.04701315502747348
47.66845703125,0.047861881480414134
47.65625,0.048484032473521906
47.64404296875,0.04887709177635888
47.6318359375,0.04903885015999182
47.619625091552734,0.04896849736515868
47.607421875,0.048666259100599615
47.59521484375,0.04813380677612656
47.5830078125,0.04737316788523932
47.57080078125,0.04638847784193384
47.55859375,0.04518305265939644
47.54638671875,0.04376399454173875
47.5341796875,0.042137228640676865
47.52197265625,0.040311299360836626
47.509765625,0.038293366895317586
47.497562408447266,0.03609431720193569
47.4853515625,0.033722403579221995
47.47314453125,0.031190180898492886
47.4609375,0.028511406025189725
47.44873046875,0.02569592496316202
47.4365234375,0.022758378943571352
47.42431640625,0.01971200678612409
47.412109375,0.016571514662328823
47.39990234375,0.013351746089481828
47.3876953125,0.010068282545426308
47.37548828125,0.006735940830983522
47.36328125,0.0033698790854778432
47.35107421875,-1.0738288252178953E-5
47.3388671875,-0.0033948382830319246
47.326656341552734,-0.0067630931295112355
47.314453125,-0.01009851454893096
47.30224609375,-0.013388957860453252
47.2900390625,-0.01661468168129965
47.27783203125,-0.019764750461606473
47.265625,-0.022821164670187143
47.253421783447266,-0.025770265572577302
47.2412109375,-0.02859797317399117
47.22900390625,-0.0312909874722411
47.216796875,-0.03383783153701786
47.20458984375,-0.03622386427062651
47.1923828125,-0.03843989607394014
47.18017578125,-0.04047386623146456
47.16796875,-0.04231656220291344
47.15576171875,-0.04396021313263651
47.1435546875,-0.04539534263981924
47.13134765625,-0.04661641215541924
47.119140625,-0.04761662856450512
47.10693359375,-0.04839179245833047
47.094722747802734,-0.048938140369185784
47.08251953125,-0.049252880405678975
47.0703125,-0.04933435209008434
47.05810546875,-0.04918232603012296
47.0458984375,-0.04879725535980083
47.03369140625,-0.048181213252952985
47.021484375,-0.04733657399775775
47.00927734375,-0.0462674749056213
46.9970703125,-0.044978921156335984
46.98486328125,-0.04347741458067729
46.97265625,-0.041769868689352785
46.96044921875,-0.0398633751358897
46.9482421875,-0.03776754239242359
46.93603515625,-0.03549224848122525
46.923828125,-0.033049213806904974
46.91162109375,-0.030448051101371342
46.8994140625,-0.027703069561861776
46.88720703125,-0.02482508179173577
46.875,-0.021828734907867638
46.862789154052734,-0.018728456175543154
46.8505859375,-0.015538110934779498
46.83837890625,-0.012274873693606591
46.826171875,-0.008951359540039673
46.81396484375,-0.005584928795245348
46.8017578125,-0.002190788106100432
46.78955078125,0.001214629215239043
46.77734375,0.004615194640275584
46.76513671875,0.007993479759867403
46.7529296875,0.011336124586781814
46.74072265625,0.014626879672825575
46.728515625,0.017847029144142903
46.71630859375,0.020984767197381515
46.7041015625,0.024023930926667374
46.69189453125,0.026950910513200085
46.6796875,0.02974908030181919
46.66748046875,0.032408192292538746
46.6552734375,0.03491517827128291
46.64306640625,0.03725581623889586
46.630859375,0.03942154316632468
46.618656158447266,0.0414017951044393
46.6064453125,0.04318554468966264
46.59423828125,0.04476519363314076
46.58203125,0.046133388284131674
46.56982421875,0.04728370379278785
46.5576171875,0.04820998069580498
46.54541015625,0.04890806611745862
46.533203125,0.04937474355509884
46.52099609375,0.049607685499081455
46.5087890625,0.04960559411870882
46.49658203125,0.04936855439286297
46.484375,0.048897575270865225
46.47216796875,0.048194606382876023
46.4599609375,0.047263314541755204
46.44775390625,0.0461080206816366
46.435546875,0.04473346733290098
46.42333984375,0.04314766236032703
46.4111328125,0.04135518113745871
46.39892578125,0.03936768575616024
46.38671875,0.03719232386557128
46.37451171875,0.03484078848714237
46.3623046875,0.03232284403507364
46.35009765625,0.029652098568894707
46.337890625,0.026839076532042712
46.32568359375,0.023898941669898942
46.3134765625,0.020845144844051647
46.30126953125,0.017690553236874303
46.2890625,0.014451267639912647
46.27685546875,0.011142618641797435
46.2646484375,0.007781595581783595
46.25244140625,0.004381480503017438
46.240234375,9.606589501356593E-4
46.22802734375,-0.002465259845094263
46.2158203125,-0.005881755850642734
46.20361328125,-0.009271290127517363
46.19140625,-0.012617790035240023
46.17919921875,-0.015904108055326688
46.1669921875,-0.0191172274153201
46.15478515625,-0.02224059816521956
46.142578125,-0.025259072026593676
46.13037109375,-0.028158966922394828
46.1181640625,-0.03092617383496648
46.10595703125,-0.03354754133946289
46.09375,-0.03600967322777937
46.08154296875,-0.03830278647020008
46.0693359375,-0.040414969790957614
46.05712890625,-0.04233616336637631
46.044921875,-0.04405766888121763
46.03271484375,-0.04556974616665011
46.0205078125,-0.04686687413320147
46.00830078125,-0.04794221272056896
45.99609375,-0.0487905260623602
45.98388671875,-0.049407915640119295
45.9716796875,-0.049791184735533
45.95947265625,-0.04993877371221498
45.947265625,-0.049849605290965236
45.93505859375,-0.049524147838477015
45.9228515625,-0.048963941917628054
45.91064453125,-0.04817145825136336
45.8984375,-0.047150116578045576
45.88623046875,-0.045905275049522166
45.8740234375,-0.044442515985966845
45.86181640625,-0.04276890564197091
45.849609375,-0.040891957632256434
45.83740234375,-0.03882006870021407
45.8251953125,-0.03656351595330667
45.81298828125,-0.034134648256626085
45.80078125,-0.03154165619511528
45.78857421875,-0.028799174441582774
45.7763671875,-0.025919766301419327
45.76416015625,-0.022916419822219824
45.751953125,-0.019802743530468427
45.73974609375,-0.01659558222840099
45.7275390625,-0.013308549980575039
45.71533203125,-0.009956588572113102
45.703125,-0.006556498825955629
45.69091796875,-0.0031243922777654614
45.6787109375,3.211336628646294E-4
45.66650390625,0.003768397414425559
45.654296875,0.007197387975146695
45.64208984375,0.01059452487674097
45.629878997802734,0.013942420342499283
45.61767578125,0.017224025183572703
45.60546875,0.020424622456282446
45.59326171875,0.023530498013131524
45.5810546875,0.026525625675134723
45.56884765625,0.029394673464578684
45.556640625,0.03212624833207571
45.54443359375,0.03470620890641751
45.5322265625,0.03712227868387071
45.52001953125,0.039362955041634805
45.5078125,0.04141679711766981
45.49560546875,0.043275622674702106
45.483394622802734,0.04492959111120661
45.47119140625,0.04637119273363952
45.458984375,0.04759270820952726
45.44677734375,0.04858937162025264
45.4345703125,0.04935561834361052
45.42236328125,0.049888514275169674
45.41015625,0.05018463628893025
45.39794921875,0.05024300857448542
45.3857421875,0.050063022443996984
45.37353515625,0.04964579774015715
45.361328125,0.04899289763737588
45.34912109375,0.04810786281090337
45.3369140625,0.046993305754218326
45.32470703125,0.04565682091536434
45.3125,0.04410296327580455
45.30029296875,0.04233899369176146
45.2880859375,0.04037502757029698
45.27587890625,0.038218314902224576
45.263671875,0.03587907368756785
45.25146484375,0.03336967353020403
45.2392578125,0.03070162663045922
45.22705078125,0.027886966264379667
45.21484375,0.02494045883693204
45.20263671875,0.02187284870279481
45.1904296875,0.018701518727171206
45.17822265625,0.01543969053767355
45.166015625,0.012104657164688152
45.15380859375,0.00871167060495312
45.1416015625,0.0052750944840124275
45.12939453125,0.0018135261570275168
45.1171875,-0.0016585785004599395
45.10498046875,-0.005121435164711861
45.0927734375,-0.008563286089770257
45.08056640625,-0.011965449940326254
45.068359375,-0.015309536062341957
45.05615234375,-0.018584176416725277
45.0439453125,-0.02177153354209585
45.03173828125,-0.024856459068970126
45.01953125,-0.027822326121679685
45.00732421875,-0.030659033724671856
44.9951171875,-0.033351041008292184
44.98291015625,-0.03588553422525944
44.970703125,-0.038249552493333214
44.95849609375,-0.04043308963440364
44.9462890625,-0.04242527152109517
44.93408203125,-0.04421750647596071
44.921875,-0.0458004165511077
44.90966796875,-0.0471664328576125
44.8974609375,-0.0483090135818202
44.88525390625,-0.0492223630843494
44.873046875,-0.049902799153571355
44.86083984375,-0.05034662577097844
44.8486328125,-0.05055163811397437
44.83642578125,-0.050516957817693275
44.82421875,-0.05024255596021858
44.81201171875,-0.049729915368257695
44.7998046875,-0.048981001258150546
44.78759765625,-0.04799945607334937
44.775390625,-0.04678949815628139
44.76318359375,-0.04535809437182194
44.7509765625,-0.0437105439283326
44.73876953125,-0.041855122181886056
44.7265625,-0.03980057564019473
44.71435546875,-0.03755685003815075
44.7021484375,-0.035134055497442265
44.68994140625,-0.032543870851380365
44.677734375,-0.02979884439951668
44.66552734375,-0.026911366355454706
44.6533203125,-0.023895386644840238
44.64111328125,-0.020764278481299598
44.62890625,-0.017535923110411133
44.61669921875,-0.014222212888682664
44.6044921875,-0.010839126838502116
44.59228515625,-0.007404615903329334
44.580078125,-0.003934388476839893
44.56787109375,-4.441526392848125E-4
44.5556640625,0.0030501520243623125
44.54345703125,0.006528608557654921
44.53125,0.009979393120767751
44.51904296875,0.013382802172225513
44.5068359375,0.016724593029635856
44.49462890625,0.019986997609124802
44.482421875,0.023155134194597148
44.47021484375,0.026215477170527315
44.4580078125,0.0291513933576392
44.44580078125,0.03194950662389462
44.43359375,0.03459783261302397
44.42138671875,0.037081952557483686
44.4091796875,0.039390566806773095
44.39697265625,0.0415137439338745
44.384765625,0.04344041280010078
44.37255859375,0.04516137100924968
44.3603515625,0.046667447347160204
44.34814453125,0.04795346411924188
44.3359375,0.04901216388733731
44.32373046875,0.049838179244831936
44.3115234375,0.05042816966636291
44.29931640625,0.05077889872702402
44.287109375,0.05088863418216408
44.27490234375,0.05075688625247511
44.2626953125,0.05038410964702346
44.25048828125,0.04977201093436448
44.23828125,0.04892342908913705
44.22607421875,0.04784279440878869
44.2138671875,0.04653432677891967
44.20166015625,0.0450051932127917
44.189453125,0.04326139519339856
44.17724609375,0.041311707348161385
44.1650390625,0.03916532853901911
44.15283203125,0.03683265514719885
44.140625,0.03432319299743446
44.12841796875,0.03165208622605588
44.1162109375,0.02882893315014999
44.10400390625,0.025868109137055346
44.091796875,0.02278397137817197
44.07958984375,0.019590463370379774
44.0673828125,0.01630304254163412
44.05517578125,0.01293632693645094
44.04296875,0.00950953712670816
44.03076171875,0.006035300738293015
44.0185546875,0.002530433924268168
44.00634765625,-9.850698746974216E-4
43.994140625,-0.004499256968960086
43.98193359375,-0.007992076802832817
43.9697265625,-0.011447567636309988
43.95751953125,-0.014851375860033603
43.9453125,-0.018183935537053466
43.93310546875,-0.021431465054025923
43.9208984375,-0.024577825447685244
43.90869140625,-0.02760872771529979
43.896484375,-0.03051020656319003
43.88427734375,-0.033267565551917656
43.8720703125,-0.03586695183609768
43.85986328125,-0.038296529652313914
43.84765625,-0.04054584979628406
43.83544921875,-0.04260263638296025
43.8232421875,-0.04445754470082612
43.81103515625,-0.04610254588346299
43.798828125,-0.047528999953599
43.78662109375,-0.04872933591739833
43.7744140625,-0.049699407061332766
43.76220703125,-0.05043365276400584
43.75,-0.05092851806010972
43.73779296875,-0.05118153263628817
43.7255859375,-0.05119162376637501
43.71337890625,-0.050958528095125265
43.701171875,-0.05048328383917699
43.68896484375,-0.049768405967230755
43.6767578125,-0.048816663250913085
43.66455078125,-0.047632742543541204
43.65234375,-0.046222796991336086
43.64013671875,-0.044592357478014565
43.6279296875,-0.04274961438902628
43.61572265625,-0.04070326122005011
43.603515625,-0.038462961174599894
43.59130859375,-0.036040283544037446
43.5791015625,-0.03344479050630173
43.56689453125,-0.03069078219036262
43.5546875,-0.027788300791848453
43.54248046875,-0.024753783201432587
43.5302734375,-0.021600804976034057
43.51806640625,-0.018344310523685244
43.505859375,-0.015000104467084125
43.49365234375,-0.01158332852026432
43.4814453125,-0.008111915605308108
43.46923828125,-0.004598626990076906
43.45703125,-0.0010634786780757545
43.44482421875,0.0024777324916971416
43.4326171875,0.006007806919207545
43.42041015625,0.00951073161950292
43.408203125,0.012970449358975126
43.39599609375,0.016368552912877404
43.3837890625,0.01968951650542668
43.37158203125,0.02291825656631448
43.359375,0.0260399140794737
43.34716796875,0.02903671473096802
43.3349609375,0.0318995102415966
43.32275390625,0.03460932487688891
43.310546875,0.03715580237753387
43.29833984375,0.03952625351038789
43.2861328125,0.041711283919680854
43.27392578125,0.043696515046069105
43.26171875,0.04547602212986878
43.24951171875,0.04703988046937034
43.2373046875,0.048380115254006505
43.22509765625,0.049491057850787695
43.212890625,0.05036742296872737
43.20068359375,0.051004428073100946
43.1884765625,0.05139947448965652
43.17626953125,0.05155031874941105
43.1640625,0.05145617357039444
43.15185546875,0.05111759591482375
43.1396484375,0.05053586003958751
43.12744140625,0.04971374565841709
43.115234375,0.04865509117046156
43.10302734375,0.04736540909168212
43.0908203125,0.04584975475054481
43.07861328125,0.04411644591283415
43.06640625,0.04217150389465473
43.05419921875,0.04002714348804952
43.0419921875,0.03769110394000446
43.02978515625,0.03517625026988125
43.017578125,0.032492518563832166
43.00537109375,0.02965274050665071
