Freq, Coherency
49.91455078125,-0.02949518171605325
49.90234375,-0.026780433173973807
49.89013671875,-0.02369247504522489
49.8779296875,-0.020273669800337436
49.86572265625,-0.016569888787715637
49.853515625,-0.01263402584060807
49.841312408447266,-0.008523616971166168
49.8291015625,-0.004289364103883094
49.81689453125,2.76833623803829E-6
49.8046875,0.004295918898106483
49.792484283447266,0.008530870017416583
49.780277252197266,0.012648898604822453
49.76806640625,0.01659114830629118
49.755859375,0.020303245960302745
49.74365234375,0.023733003332924645
49.7314453125,0.026830380627214195
49.71923828125,0.029556582500906474
49.70703125,0.03187027542103149
49.69482421875,0.033740909625858066
49.6826171875,0.035141277730043496
49.67041015625,0.036051246757987924
49.658203125,0.03645932212556862
49.64599609375,0.036358845051490035
49.6337890625,0.03575109163980236
49.62158203125,0.034644950449556816
49.609375,0.03305485499224322
49.59716796875,0.031003960960599552
49.5849609375,0.02851941195430512
49.57275390625,0.025636366503287992
49.560546875,0.022396296296088223
49.54833984375,0.018841752010479017
49.5361328125,0.015025018269815957
49.52392578125,0.010994628715346275
49.51171875,0.006813088017945909
49.49951171875,0.002535253964615111
49.4873046875,-0.0017804126686643685
49.47509765625,-0.006070623836213196
49.462890625,-0.010278914376719099
49.450687408447266,-0.014343608870775694
49.4384765625,-0.0182116558752154
49.42626953125,-0.02182397707940141
49.4140625,-0.025134207595317388
49.40185546875,-0.02809460614925417
49.3896484375,-0.030662069448802207
49.37744140625,-0.032804409716342395
49.365234375,-0.03448961937034419
49.35302734375,-0.0356936948537284
49.3408203125,-0.03640067102015879
49.32861328125,-0.03659998758261362
49.31640625,-0.03628896149506927
49.30419921875,-0.03547155889833553
49.2919921875,-0.034159079703444124
49.27978515625,-0.03236971135281458
49.267578125,-0.030128298965230373
49.255367279052734,-0.027466243427127942
49.243167877197266,-0.024420855549324175
49.23095703125,-0.021033661290510524
49.218753814697266,-0.01735308781889827
49.206546783447266,-0.013428397343637155
49.1943359375,-0.009315740812565629
49.182132720947266,-0.005073083569125189
49.169925689697266,-7.572893224934906E-4
49.15771484375,0.0035697806578364236
49.145503997802734,0.007848136115597438
49.13330078125,0.01201716110255911
49.12109375,0.01602088946140856
49.10888671875,0.01980210615191903
49.0966796875,0.02330800303181447
49.08447265625,0.02648959979188258
49.072265625,0.029301393039900415
49.06005859375,0.03170628722205925
49.0478515625,0.03366943976295784
49.03564453125,0.0351628562311819
49.0234375,0.036166765792649
49.01123046875,0.03666635408604541
48.9990234375,0.03665463110278142
48.98681640625,0.036131623104162826
48.974609375,0.03510440178869892
48.96240234375,0.03358786685376702
48.9501953125,0.03160097763374025
48.93798828125,0.029174455566042565
48.92578125,0.026339428232246463
48.913578033447266,0.02313726978064654
48.9013671875,0.019608216594024636
48.889156341552734,0.015807215327951596
48.876953125,0.01178569647981492
48.86474609375,0.007597522993085198
48.852542877197266,0.0033036484965974664
48.84033203125,-0.001038347687236263
48.828125,-0.005367316334466599
48.81591796875,-0.009620829931120595
48.8037109375,-0.013742893292173791
48.79150390625,-0.017674262067048255
48.779296875,-0.021361212829490345
48.76708984375,-0.024749812571888057
48.7548828125,-0.027792842119292484
48.742679595947266,-0.0304494061873547
48.73046875,-0.032682548537538714
48.71826171875,-0.034460497894027574
48.7060546875,-0.03575812676675753
48.69384765625,-0.03655739091909878
48.681640625,-0.03684647360338857
48.66943359375,-0.036621789322805375
48.6572265625,-0.03588612722243162
48.64501953125,-0.03464962184123351
48.6328125,-0.0329293976201526
48.62060546875,-0.030749488543834066
48.6083984375,-0.028139906528766974
48.59619140625,-0.02513707769435913
48.583984375,-0.02178418724428685
48.57177734375,-0.018125270897896936
48.5595703125,-0.014211229851361223
48.54736328125,-0.010100849009506536
48.53515625,-0.0058469168607402176
48.52294921875,-0.0015103371260534947
48.5107421875,0.002848410469870897
48.49853515625,0.007168242069226855
48.486328125,0.011389444574434988
48.47412109375,0.015452817905867179
48.4619140625,0.019300159139835946
48.44970703125,0.02288191600153664
48.4375,0.02614411659197635
48.42529296875,0.02904132953136968
48.4130859375,0.031535334912365764
48.40087890625,0.03359061676799413
48.388671875,0.03517703328898172
48.37646484375,0.036272752217527814
48.3642578125,0.036863229400717706
48.35205078125,0.036939506329447196
48.33984375,0.0365003379908871
48.32763671875,0.03555183096227412
48.3154296875,0.03410719892265752
48.30322265625,0.03218628179007007
48.291015625,0.029816859211984792
48.27880859375,0.02702901305316513
48.2666015625,0.023864222864580148
48.25439453125,0.02036569101902141
48.2421875,0.0165821415090811
48.22998046875,0.012566555664459283
48.2177734375,0.008374372933221652
48.205570220947266,0.004065641935863109
48.193359375,-3.0503925016545747E-4
48.18115234375,-0.004668068218592037
48.1689453125,-0.008970219976883345
48.15673828125,-0.013146885612506024
48.144527435302734,-0.017140869374999514
48.13232421875,-0.020897152709870942
48.1201171875,-0.02436277476344129
48.10791015625,-0.027489388033490644
48.095703125,-0.03023312010763014
48.083499908447266,-0.032555299599922774
48.0712890625,-0.034425180079284474
48.059085845947266,-0.03581463062867943
48.046875,-0.03670468880347692
48.03466796875,-0.0370830324567125
48.0224609375,-0.036943905642750706
48.01025390625,-0.036289687423731676
47.998046875,-0.0351283898855987
47.98583984375,-0.03347700904600641
47.9736328125,-0.0313573830288682
47.96142578125,-0.028800362826398543
47.94921875,-0.025841090906502717
47.93701171875,-0.022520363841667286
47.9248046875,-0.018886092871436666
47.91259765625,-0.014984698141646387
47.900390625,-0.010874496530985258
47.88818359375,-0.0066118103441509795
47.8759765625,-0.0022555142794717527
47.86376953125,0.0021348151881321687
47.8515625,0.0064950377687651994
47.83935546875,0.0107671544844499
47.8271484375,0.014887126726668571
47.81494140625,0.01880338010435962
47.802734375,0.022455587377811594
47.79052734375,0.025799250892665777
47.7783203125,0.028781292400034058
47.76611328125,0.03136240819275585
47.75390625,0.03350682213336557
47.74169921875,0.035184228962507856
47.7294921875,0.036371325502619935
47.71728515625,0.03705143880201601
47.705078125,0.037214501037759196
47.69287109375,0.03685845376271003
47.6806640625,0.035988084288629825
47.66845703125,0.034614874452526284
47.65625,0.03275958648302215
47.64404296875,0.030445303453680395
47.6318359375,0.027706362799397952
47.619625091552734,0.024579364018545463
47.607421875,0.021109058684312326
47.59521484375,0.017343894524372343
47.5830078125,0.013334193372716992
47.57080078125,0.009140406431398287
47.55859375,0.004813215957999186
47.54638671875,4.2260418852594175E-4
47.5341796875,-0.0039782148363787986
47.52197265625,-0.00832151090437056
47.509765625,-0.012552940167447041
47.497562408447266,-0.01660898907781351
47.4853515625,-0.020435434430743107
47.47314453125,-0.0239776569443079
47.4609375,-0.027183856879316185
47.44873046875,-0.030013841927656104
47.4365234375,-0.032424682618208286
47.42431640625,-0.03438395088145002
47.412109375,-0.035864431679929365
47.39990234375,-0.03684460864182168
47.3876953125,-0.03731051860922479
47.37548828125,-0.03725620046274966
47.36328125,-0.03668175114013656
47.35107421875,-0.03559602711337449
47.3388671875,-0.034011754593213935
47.326656341552734,-0.03195297215262841
47.314453125,-0.02944916193370479
47.30224609375,-0.0265321083787896
47.2900390625,-0.023245263354573987
47.27783203125,-0.019633059803182796
47.265625,-0.015744686647002806
47.253421783447266,-0.011636804324096386
47.2412109375,-0.0073659529819279064
47.22900390625,-0.002991157956075377
47.216796875,0.0014299970079556853
47.20458984375,0.005827419795482322
47.1923828125,0.010147842664504844
47.18017578125,0.014327719946504818
47.16796875,0.018307133594797603
47.15576171875,0.022033857514956318
47.1435546875,0.02545240867159643
47.13134765625,0.02851793767607104
47.119140625,0.03118516680241658
47.10693359375,0.03341820308210943
47.094722747802734,0.03518596691696742
47.08251953125,0.03646323310770636
47.0703125,0.03723165549782605
47.05810546875,0.037480512562058595
47.0458984375,0.03720655590476509
47.03369140625,0.036413518711773986
47.021484375,0.03511170957051452
47.00927734375,0.03331938122306597
46.9970703125,0.03106224709503336
46.98486328125,0.028370205892120345
46.97265625,0.02528269216726673
46.96044921875,0.02184026418592552
46.9482421875,0.018092033727673863
46.93603515625,0.014091606144819052
46.923828125,0.009893814569532417
46.91162109375,0.005555174760959337
46.8994140625,0.0011396012377861981
46.88720703125,-0.0032947743508086654
46.875,-0.007684314169158984
46.862789154052734,-0.011965977596414585
46.8505859375,-0.016083857617899513
46.83837890625,-0.019976430140494866
46.826171875,-0.0235927296524044
46.81396484375,-0.026879379658696623
46.8017578125,-0.029793009492168003
46.78955078125,-0.032291476173874276
46.77734375,-0.03433979092126698
46.76513671875,-0.03590828000808769
46.7529296875,-0.03697719760030425
46.74072265625,-0.0375301729471696
46.728515625,-0.03755944307090454
46.71630859375,-0.03706448492566328
46.7041015625,-0.0360519551085606
46.69189453125,-0.034535853006147345
46.6796875,-0.032538094495478655
46.66748046875,-0.030084862860832184
46.6552734375,-0.027210983700420598
46.64306640625,-0.023957824223734922
46.630859375,-0.020368127862529523
46.618656158447266,-0.016492795832880727
46.6064453125,-0.012388257542607728
46.59423828125,-0.00810974895731832
46.58203125,-0.0037152328418515687
46.56982421875,7.323083889203494E-4
46.5576171875,0.005170798755668872
46.54541015625,0.009536566468440347
46.533203125,0.013772096295643209
46.52099609375,0.017816477190776135
46.5087890625,0.021613197071776693
46.49658203125,0.025107869330083868
46.484375,0.02825439025688468
46.47216796875,0.031007294450202318
46.4599609375,0.03332804596347388
46.44775390625,0.0351834929225923
46.435546875,0.03654907656957486
46.42333984375,0.03740453881740869
46.4111328125,0.037738506495765954
46.39892578125,0.037545655241808445
46.38671875,0.03682829875601152
46.37451171875,0.03559675835320035
46.3623046875,0.03386794012312434
46.35009765625,0.03166680855336082
46.337890625,0.029022226958824057
46.32568359375,0.025971777152836825
46.3134765625,0.022559353788255576
46.30126953125,0.01882980177832201
46.2890625,0.014836385539075592
46.27685546875,0.010634785268745088
46.2646484375,0.00628534533347832
46.25244140625,0.0018453076868992853
46.240234375,-0.0026216702415461056
46.22802734375,-0.007052947869452528
46.2158203125,-0.01138722992099131
46.20361328125,-0.015563690979958534
46.19140625,-0.01952398351583476
46.17919921875,-0.02321136357763028
46.1669921875,-0.026577196583159397
46.15478515625,-0.02957289120135219
46.142578125,-0.03215637333526602
46.13037109375,-0.0342918030086496
46.1181640625,-0.03594906693358226
46.10595703125,-0.03710490153566307
46.09375,-0.03774288857242862
46.08154296875,-0.03785448796717526
46.0693359375,-0.037437421007301325
46.05712890625,-0.03649764451826707
46.044921875,-0.03504808836057291
46.03271484375,-0.033109713858453814
46.0205078125,-0.030707918688459186
46.00830078125,-0.027875779306671494
45.99609375,-0.024655933846183753
45.98388671875,-0.0210898167806027
45.9716796875,-0.017229899913666025
45.95947265625,-0.01312527569734293
45.947265625,-0.008838181668360964
45.93505859375,-0.004426281435608251
45.9228515625,4.6817216964625684E-5
45.91064453125,0.004522220708089196
45.8984375,0.008937129509809525
45.88623046875,0.013226979239925654
45.8740234375,0.017333320233519387
45.86181640625,0.021197302334242694
45.849609375,0.024769098162343187
45.83740234375,0.027994827040787294
45.8251953125,0.03083059513265202
45.81298828125,0.03323656706977735
45.80078125,0.03517935227988927
45.78857421875,0.036631533018790546
45.7763671875,0.037572435207561324
45.76416015625,0.03798958050866094
45.751953125,0.037876254830592204
45.73974609375,0.03723448057323431
45.7275390625,0.036072099680080405
45.71533203125,0.034406116725236725
45.703125,0.0322593556662626
45.69091796875,0.02966072822522306
45.6787109375,0.026649374670103844
45.66650390625,0.02326405726681346
45.654296875,0.019553300249766217
45.64208984375,0.015568337184450946
45.629878997802734,0.011362205800667631
45.61767578125,0.007000325025470567
45.60546875,0.002539983481083438
45.59326171875,-0.0019602546065443935
45.5810546875,-0.006432854028944768
45.56884765625,-0.01081514311747579
45.556640625,-0.015050751124918856
45.54443359375,-0.019075955373644923
45.5322265625,-0.022837125339410964
45.52001953125,-0.02627919955527606
45.5078125,-0.029355140746057534
45.49560546875,-0.032022308711538036
45.483394622802734,-0.034242976439690084
45.47119140625,-0.035987019604695636
45.458984375,-0.0372279178021277
45.44677734375,-0.037950169446519376
45.4345703125,-0.03814251206317402
45.42236328125,-0.037802155039801326
45.41015625,-0.03693446435050123
45.39794921875,-0.03555077763389348
45.3857421875,-0.033669492935309776
45.37353515625,-0.03131846703125139
45.361328125,-0.028529441086006736
45.34912109375,-0.025341590843164803
45.3369140625,-0.02179743234112945
45.32470703125,-0.01794960214636507
45.3125,-0.013849900277862306
45.30029296875,-0.00955428944105565
45.2880859375,-0.005127291042676449
45.27587890625,-6.242896621396253E-4
45.263671875,0.003887169269380549
45.25146484375,0.008347042362872507
45.2392578125,0.012688422776447751
45.22705078125,0.016856929938254793
45.21484375,0.02078832370175425
45.20263671875,0.0244333237463401
45.1904296875,0.02773798435356505
45.17822265625,0.030655152210609212
45.166015625,0.03314589565436333
45.15380859375,0.03517297594014351
45.1416015625,0.03671089055357721
45.12939453125,0.03773612540302445
45.1171875,0.03823489550583578
45.10498046875,0.038199784980399915
45.0927734375,0.03763138650132566
45.08056640625,0.036537028039141134
45.068359375,0.03493268710095685
45.05615234375,0.03284013810397233
45.0439453125,0.03028763402778226
45.03173828125,0.02731236846422178
45.01953125,0.023955223344456145
45.00732421875,0.020261255260648016
44.9951171875,0.01628458687204338
44.98291015625,0.012078068892968209
44.970703125,0.007703429273147265
44.95849609375,0.0032197700499107546
44.9462890625,-0.0013097688577573445
44.93408203125,-0.005824035797114132
44.921875,-0.010256731296668953
44.90966796875,-0.014548835624662857
44.8974609375,-0.01863886872019081
44.88525390625,-0.022468182044225057
44.873046875,-0.025985131112917538
44.86083984375,-0.029141251077275093
44.8486328125,-0.031890134035472674
44.83642578125,-0.03419475535431013
44.82421875,-0.036023148966950906
44.81201171875,-0.03734838278538943
44.7998046875,-0.03815285304057633
44.78759765625,-0.038424552257336875
44.775390625,-0.03815971812543877
44.76318359375,-0.03736214459364207
44.7509765625,-0.03604219708888704
44.73876953125,-0.034219065299821924
44.7265625,-0.0319168762669658
44.71435546875,-0.029169350362908558
44.7021484375,-0.026012576216129752
44.68994140625,-0.022491542036617726
44.677734375,-0.01865822151706093
44.66552734375,-0.014560517283982007
44.6533203125,-0.01025827732980184
44.64111328125,-0.0058115468349998305
44.62890625,-0.0012842048284862676
44.61669921875,0.003264102825196028
44.6044921875,0.007766590246464608
44.59228515625,0.012163318432065391
44.580078125,0.01638970725187762
44.56787109375,0.02039000810656138
44.5556640625,0.024106565646313916
44.54345703125,0.027486118018433453
44.53125,0.030484031488168875
44.51904296875,0.033056138076211515
44.5068359375,0.035168086543161524
44.49462890625,0.036789323853758236
44.482421875,0.03789673193441439
44.47021484375,0.03847557381500406
44.4580078125,0.03851707620206227
44.44580078125,0.03802081287424652
44.43359375,0.03699317573393186
44.42138671875,0.03544846392686109
44.4091796875,0.03340901497949961
44.39697265625,0.03090157101975046
44.384765625,0.027961741649589807
44.37255859375,0.024631636128717684
44.3603515625,0.020956983996104968
44.34814453125,0.0169871584573615
44.3359375,0.012778924392257567
44.32373046875,0.008392766454801815
44.3115234375,0.00388644285200888
44.29931640625,-6.754233651728607E-4
44.287109375,-0.005229119161261947
44.27490234375,-0.009709278359142388
44.2626953125,-0.01405683412228901
44.25048828125,-0.018209224118231775
44.23828125,-0.02210838603048756
44.22607421875,-0.025698426561449342
44.2138671875,-0.028931944752706065
44.20166015625,-0.031761151226614784
44.189453125,-0.034148645963915446
44.17724609375,-0.036059751364591004
44.1650390625,-0.037468016695338564
44.15283203125,-0.038352455216034566
44.140625,-0.03870184558680355
44.12841796875,-0.038510610068868356
44.1162109375,-0.037781363189648566
44.10400390625,-0.03652411127289999
44.091796875,-0.03475706770021801
44.07958984375,-0.032503379325939635
44.0673828125,-0.029794993705723437
44.05517578125,-0.0266696197629108
44.04296875,-0.02317225303549171
44.03076171875,-0.019347572750089134
44.0185546875,-0.015252753959185177
44.00634765625,-0.010945450866207405
43.994140625,-0.006482372608591185
43.98193359375,-0.0019274897897011353
43.9697265625,0.002653783136302254
43.95751953125,0.007202856639953815
43.9453125,0.011649038035630907
43.93310546875,0.015936891949335872
43.9208984375,0.020000305904319983
43.90869140625,0.023787109354298643
43.896484375,0.02724266861837516
43.88427734375,0.030318617407576093
43.8720703125,0.03297268129517126
43.85986328125,0.035165142292534236
43.84765625,0.03686792406708688
43.83544921875,0.038056141252287075
43.8232421875,0.03871289718859232
43.81103515625,0.03882933587881244
43.798828125,0.03840323659321522
43.78662109375,0.03744101292530395
43.7744140625,0.035955196212813983
43.76220703125,0.03396593428271383
43.75,0.03150218788297971
43.73779296875,0.028598896858447784
43.7255859375,0.025294202040910638
43.71337890625,0.021633958952790244
43.701171875,0.017671615533809363
43.68896484375,0.013462992949358767
43.6767578125,0.009062012211480477
43.66455078125,0.004534623542364371
43.65234375,-5.556764342169076E-5
43.64013671875,-0.004649592000555045
43.6279296875,-0.009178434471371802
43.61572265625,-0.013580330379172579
43.603515625,-0.017793750163077708
43.59130859375,-0.021759531269036042
43.5791015625,-0.025422717817553397
43.56689453125,-0.028731581089268904
43.5546875,-0.03164022675888866
43.54248046875,-0.03410768132080983
43.5302734375,-0.03609992634783262
43.51806640625,-0.037587681954677106
43.505859375,-0.038550485348831355
43.49365234375,-0.038975549471734906
43.4814453125,-0.038856172981228156
43.46923828125,-0.03819369765972359
43.45703125,-0.036997601188242774
43.44482421875,-0.035284312568410636
43.4326171875,-0.03307777881497322
43.42041015625,-0.03040839871152336
43.408203125,-0.027312371861853566
43.39599609375,-0.023834871159888447
43.3837890625,-0.020023671751411683
43.37158203125,-0.015931425954976174
43.359375,-0.011615459802155547
43.34716796875,-0.007136298510889717
43.3349609375,-0.002554064872720185
43.32275390625,0.0020630526572819733
43.310546875,0.006652958780941034
43.29833984375,0.011150937607132882
43.2861328125,0.015496389767024
43.27392578125,0.019624579393326583
43.26171875,0.023480063129991156
43.24951171875,0.027009732844123804
43.2373046875,0.030160692490132004
43.22509765625,0.032893357055779414
43.212890625,0.03516630579090147
43.20068359375,0.03694853024531383
43.1884765625,0.03821555596507267
43.17626953125,0.03894856811965202
43.1640625,0.03913765164753211
43.15185546875,0.03878013455439888
43.1396484375,0.037880340423589544
43.12744140625,0.03645131185065487
43.115234375,0.03451193142824765
43.10302734375,0.0320905984903889
43.0908203125,0.02922012921100528
43.07861328125,0.025940863159890134
43.06640625,0.022296563426327687
43.05419921875,0.018341379927352228
43.0419921875,0.014127164130641086
43.02978515625,0.00971751715877961
