Freq, Coherency
49.91455078125,0.11917580631018919
49.90234375,0.1191227102131558
49.89013671875,0.11905531263960954
49.8779296875,0.11897371361420983
49.86572265625,0.1188778275661215
49.853515625,0.11876769211366002
49.841312408447266,0.11864335802702615
49.8291015625,0.11850471343522863
49.81689453125,0.11835195831350943
49.8046875,0.11818501403728723
49.792484283447266,0.11800380610163858
49.780277252197266,0.11780844726391135
49.76806640625,0.11759896104238314
49.755859375,0.11737533324933208
49.74365234375,0.1171376044506591
49.7314453125,0.11688590259595663
49.71923828125,0.11662005397983294
49.70703125,0.11634029846142224
49.69482421875,0.11604644337160619
49.6826171875,0.11573862897854537
49.67041015625,0.11541701943804236
49.658203125,0.11508139379171167
49.64599609375,0.11473191400337183
49.6337890625,0.11436861846682506
49.62158203125,0.11399169998840698
49.609375,0.11360090023229726
49.59716796875,0.11319640984051742
49.5849609375,0.112778273823431
49.57275390625,0.11234653883376872
49.560546875,0.1119014330061774
49.54833984375,0.1114426519340902
49.5361328125,0.11097039838538672
49.52392578125,0.11048457549972628
49.51171875,0.10998580306380337
49.49951171875,0.10947354987285057
49.4873046875,0.10894806978505793
49.47509765625,0.10840963929983516
49.462890625,0.10785789097451395
49.450687408447266,0.10729327776327616
49.4384765625,0.10671532846562483
49.42626953125,0.10612488207841429
49.4140625,0.10552135752361146
49.40185546875,0.10490505625176572
49.3896484375,0.10427630158726876
49.37744140625,0.10363466510032696
49.365234375,0.10298046813838559
49.35302734375,0.10231405355396059
49.3408203125,0.10163496749626173
49.32861328125,0.1009435508785704
49.31640625,0.10024016572706182
49.30419921875,0.09952433323965916
49.2919921875,0.09879641354313488
49.27978515625,0.09805649070834713
49.267578125,0.09730465026188591
49.255367279052734,0.09654104488037267
49.243167877197266,0.0957658099780079
49.23095703125,0.09497881558482783
49.218753814697266,0.09418044464658304
49.206546783447266,0.09337035740419379
49.1943359375,0.09254896626696567
49.182132720947266,0.09171648834465093
49.169925689697266,0.09087256965304825
49.15771484375,0.09001725615723129
49.145503997802734,0.08915133911725687
49.13330078125,0.08827474052455399
49.12109375,0.08738708800487399
49.10888671875,0.0864887573496732
49.0966796875,0.08557985335096643
49.08447265625,0.08466048209078932
49.072265625,0.08373112286777692
49.06005859375,0.08279114448558049
49.0478515625,0.08184102465982811
49.03564453125,0.08088125848214922
49.0234375,0.07991119426887212
49.01123046875,0.07893132558315233
48.9990234375,0.07794216278862463
48.98681640625,0.07694303440055912
48.974609375,0.07593444931033574
48.96240234375,0.074916932615808
48.9501953125,0.0738893832736429
48.93798828125,0.07285355636411356
48.92578125,0.07180834216140312
48.913578033447266,0.07075460464078895
48.9013671875,0.06969147546015662
48.889156341552734,0.06862016360256767
48.876953125,0.06754062011294036
48.86474609375,0.06645238824918537
48.852542877197266,0.06535627607799346
48.84033203125,0.06425182208141485
48.828125,0.0631393090580908
48.81591796875,0.062019409311990174
48.8037109375,0.06089136338208753
48.79150390625,0.059755748442578076
48.779296875,0.058612186551549705
48.76708984375,0.05746183308487022
48.7548828125,0.05630477714320553
48.742679595947266,0.055140599266729845
48.73046875,0.05396926858350037
48.71826171875,0.05279108622984385
48.7060546875,0.05160629115526465
48.69384765625,0.050415023410873366
48.681640625,0.04921790156157748
48.66943359375,0.0480141142840546
48.6572265625,0.04680427921962395
48.64501953125,0.04558853955427112
48.6328125,0.04436703921573144
48.62060546875,0.043140412161834424
48.6083984375,0.04190782728942855
48.59619140625,0.0406699177486975
48.583984375,0.03942732583519964
48.57177734375,0.03817920975594462
48.5595703125,0.036926211069660785
48.54736328125,0.035668979724743206
48.53515625,0.034406664136531005
48.52294921875,0.03313991358825373
48.5107421875,0.03186887847451776
48.49853515625,0.030594217867367768
48.486328125,0.029315068542675463
48.47412109375,0.02803208900405795
48.4619140625,0.026745944345561733
48.44970703125,0.025455763689084823
48.4375,0.024162211633593375
48.42529296875,0.022865379037163916
48.4130859375,0.02156554606025114
48.40087890625,0.02026280454178679
48.388671875,0.01895730956292877
48.37646484375,0.01764973749347982
48.3642578125,0.01633920323233455
48.35205078125,0.015026382827508051
48.33984375,0.01371143272190147
48.32763671875,0.012394509652466468
48.3154296875,0.011076295631748544
48.30322265625,0.009755898556977775
48.291015625,0.008434526438636939
48.27880859375,0.007111285116937772
48.2666015625,0.005786858147064026
48.25439453125,0.004461403637178864
48.2421875,0.003135079858246075
48.22998046875,0.0018085733058440415
48.2177734375,4.809865466292774E-4
48.205570220947266,-8.465789443298055E-4
48.193359375,-0.0021752094328023725
48.18115234375,-0.0035029726638351193
48.1689453125,-0.004831181760017465
48.15673828125,-0.006159149384420547
48.144527435302734,-0.007486603319532253
48.13232421875,-0.00881319683834137
48.1201171875,-0.010139487059689827
48.10791015625,-0.011464900424426237
48.095703125,-0.01278875150809232
48.083499908447266,-0.014111522252760635
48.0712890625,-0.015433766735139652
48.059085845947266,-0.016753674447467094
48.046875,-0.018072212996227802
48.03466796875,-0.019389623989420957
48.0224609375,-0.02070446114012852
48.01025390625,-0.022016633098553597
47.998046875,-0.023327026878000832
47.98583984375,-0.024634962472595275
47.9736328125,-0.02594028282220147
47.96142578125,-0.027242831139389176
47.94921875,-0.02854193447793805
47.93701171875,-0.02983847081108772
47.9248046875,-0.03113125276314804
47.91259765625,-0.03242115395189641
47.900390625,-0.033707504041895556
47.88818359375,-0.03498963873300799
47.8759765625,-0.03626842432209946
47.86376953125,-0.03754319582946194
47.8515625,-0.03881379976345777
47.83935546875,-0.04008008309152081
47.8271484375,-0.041341392157369976
47.81494140625,-0.042598578974459914
47.802734375,-0.0438504917850898
47.79052734375,-0.045098471479872886
47.7783203125,-0.046340875692687626
47.76611328125,-0.04757756068012281
47.75390625,-0.04880936160558479
47.74169921875,-0.05003514975115652
47.7294921875,-0.05125575283289516
47.71728515625,-0.0524705344281323
47.705078125,-0.05367934775513648
47.69287109375,-0.05488156944973872
47.6806640625,-0.05607801113568346
47.66845703125,-0.057268048391569085
47.65625,-0.05845159451813885
47.64404296875,-0.05962839141295568
47.6318359375,-0.06079835420726126
47.619625091552734,-0.06196124222466061
47.607421875,-0.0631172115591124
47.59521484375,-0.06426536964593998
47.5830078125,-0.06540659023723207
47.57080078125,-0.06653982699231407
47.55859375,-0.06766629094607766
47.54638671875,-0.06878405358589018
47.5341796875,-0.06989431848798108
47.52197265625,-0.07099606749981237
47.509765625,-0.0720900437752059
47.497562408447266,-0.07317533632951896
47.4853515625,-0.07425282690338182
47.47314453125,-0.07532137075585739
47.4609375,-0.07638075589384458
47.44873046875,-0.07743169664380536
47.4365234375,-0.07847322890572789
47.42431640625,-0.0795060548631811
47.412109375,-0.08052963230251983
47.39990234375,-0.0815438364194799
47.3876953125,-0.0825481456804218
47.37548828125,-0.08354323695971744
47.36328125,-0.0845285871421586
47.35107421875,-0.08550368974506149
47.3388671875,-0.08646958391839482
47.326656341552734,-0.08742491210948775
47.314453125,-0.08836981297978154
47.30224609375,-0.08930467956242041
47.2900390625,-0.09022873474203259
47.27783203125,-0.09114300641604865
47.265625,-0.09204619678808063
47.253421783447266,-0.09293832821757714
47.2412109375,-0.09381977412105585
47.22900390625,-0.09468995210916181
47.216796875,-0.09554971189867402
47.20458984375,-0.09639758020880058
47.1923828125,-0.09723447177942336
47.18017578125,-0.09805994389310754
47.16796875,-0.09887357334068277
47.15576171875,-0.09967622436749782
47.1435546875,-0.10046652122667687
47.13134765625,-0.10124531697149797
47.119140625,-0.10201189579067063
47.10693359375,-0.10276677311689872
47.094722747802734,-0.1035094851736899
47.08251953125,-0.10424012868140113
47.0703125,-0.10495842440406644
47.05810546875,-0.10566406776559148
47.0458984375,-0.10635753285840144
47.03369140625,-0.10703818179340524
47.021484375,-0.10770647170998303
47.00927734375,-0.10836204599408002
46.9970703125,-0.1090048229355403
46.98486328125,-0.10963472233273054
46.97265625,-0.11025142263840997
46.96044921875,-0.11085533762641293
46.9482421875,-0.11144614364498796
46.93603515625,-0.11202376662390257
46.923828125,-0.11258791216134961
46.91162109375,-0.11313920139138893
46.8994140625,-0.11367663456021293
46.88720703125,-0.11420082065946249
46.875,-0.1147114769179994
46.862789154052734,-0.11520849688012778
46.8505859375,-0.1156919431250377
46.83837890625,-0.1161614445796275
46.826171875,-0.11661735709994608
46.81396484375,-0.11705925984670112
46.8017578125,-0.11748744811879183
46.78955078125,-0.11790168844318161
46.77734375,-0.11830192763691023
46.76513671875,-0.11868796333351739
46.7529296875,-0.11906005298296078
46.74072265625,-0.1194179919562737
46.728515625,-0.11976159981896665
46.71630859375,-0.12009110528194072
46.7041015625,-0.12040632562823947
46.69189453125,-0.1207072194231049
46.6796875,-0.1209936358003224
46.66748046875,-0.12126576473801202
46.6552734375,-0.12152345306468465
46.64306640625,-0.12176657230237901
46.630859375,-0.12199528311130138
46.618656158447266,-0.12220947235822753
46.6064453125,-0.12240905762789085
46.59423828125,-0.12259399352526337
46.58203125,-0.12276438365500202
46.56982421875,-0.12292012729476823
46.5576171875,-0.12306120197795362
46.54541015625,-0.12318759276217778
46.533203125,-0.12329926841116375
46.52099609375,-0.12339621819961955
46.5087890625,-0.12347842666788023
46.49658203125,-0.12354585621356225
46.484375,-0.12359854857371635
46.47216796875,-0.12363646379456754
46.4599609375,-0.12365959345949762
46.44775390625,-0.12366793054203587
46.435546875,-0.12366147679479965
46.42333984375,-0.12364023423734653
46.4111328125,-0.12360416732233831
46.39892578125,-0.12355333384201209
46.38671875,-0.12348768412003434
46.37451171875,-0.12340723940120932
46.3623046875,-0.12331200541193402
46.35009765625,-0.12320203635574792
46.337890625,-0.12307725395661018
46.32568359375,-0.12293771007521474
46.3134765625,-0.12278348182703866
46.30126953125,-0.1226144610043907
46.2890625,-0.1224307223883687
46.27685546875,-0.12223228407247816
46.2646484375,-0.12201925361727081
46.25244140625,-0.12179148305479492
46.240234375,-0.12154907762643566
46.22802734375,-0.12129216761501271
46.2158203125,-0.12102057538748627
46.20361328125,-0.12073442892184486
46.19140625,-0.1204337585955493
46.17919921875,-0.12011872479444978
46.1669921875,-0.11978896024094864
46.15478515625,-0.11944491732185811
46.142578125,-0.11908663491520671
46.13037109375,-0.11871386687106544
46.1181640625,-0.11832679371607874
46.10595703125,-0.11792545795725301
46.09375,-0.11751007196696493
46.08154296875,-0.1170803510099503
46.0693359375,-0.11663650522754264
46.05712890625,-0.11617858396043533
46.044921875,-0.11570663824481062
46.03271484375,-0.11522091689986141
46.0205078125,-0.11472108767522053
46.00830078125,-0.11420739720341191
45.99609375,-0.11368011584366655
45.98388671875,-0.11313888327567412
45.9716796875,-0.11258419118737197
45.95947265625,-0.1120154318558558
45.947265625,-0.11143357438816759
45.93505859375,-0.11083799812445469
45.9228515625,-0.1102292445513059
45.91064453125,-0.10960689833517988
45.8984375,-0.10897126998072812
45.88623046875,-0.10832243197564229
45.8740234375,-0.10766045840579817
45.86181640625,-0.10698569609542244
45.849609375,-0.10629768515365785
45.83740234375,-0.10559677037697382
45.8251953125,-0.1048830321571887
45.81298828125,-0.10415684399259614
45.80078125,-0.10341771128842651
45.78857421875,-0.10266566722877807
45.7763671875,-0.10190177599913976
45.76416015625,-0.10112518481952282
45.751953125,-0.10033628481852408
45.73974609375,-0.09953548820475627
45.7275390625,-0.09872225005174483
45.71533203125,-0.09789698068360854
45.703125,-0.0970597755884008
45.69091796875,-0.09621073170629216
45.6787109375,-0.09535029220248813
45.66650390625,-0.09447787193055876
45.654296875,-0.09359426621569411
45.64208984375,-0.09269887429353413
45.629878997802734,-0.09179186450097798
45.61767578125,-0.09087419750326188
45.60546875,-0.08994549665484411
45.59326171875,-0.08900541588209311
45.5810546875,-0.08805443209360339
45.56884765625,-0.08709304087853827
45.556640625,-0.08612058905172161
45.54443359375,-0.08513757055651269
45.5322265625,-0.08414410012757058
45.52001953125,-0.08314029377955535
45.5078125,-0.082126446788353
45.49560546875,-0.08110232345207659
45.483394622802734,-0.08006830847734012
45.47119140625,-0.07902425672108453
45.458984375,-0.07797097766692204
45.44677734375,-0.0769076675382376
45.4345703125,-0.07583529688994235
45.42236328125,-0.07475270542704492
45.41015625,-0.07366174213926648
45.39794921875,-0.07256167755142952
45.3857421875,-0.0714517543266618
45.37353515625,-0.0703338683001078
45.361328125,-0.0692068213120968
45.34912109375,-0.06807164248497811
45.3369140625,-0.0669271048246349
45.32470703125,-0.06577516350485048
45.3125,-0.06461432366713353
45.30029296875,-0.06344569683124832
45.2880859375,-0.06226963210963515
45.27587890625,-0.06108533186835959
45.263671875,-0.059893402171050415
45.25146484375,-0.058693983511420855
45.2392578125,-0.05748769886991865
45.22705078125,-0.056273730320128855
45.21484375,-0.05505318693497506
45.20263671875,-0.0538252412190776
45.1904296875,-0.052590522553629775
45.17822265625,-0.05134917677757421
45.166015625,-0.05010135056130712
45.15380859375,-0.048847691595926064
45.1416015625,-0.047587068205833825
45.12939453125,-0.046320689786904186
45.1171875,-0.04504842555021496
45.10498046875,-0.04377093563398032
45.0927734375,-0.0424873543776117
45.08056640625,-0.041198341101851714
45.068359375,-0.039904564460804454
45.05615234375,-0.0386051478993704
45.0439453125,-0.03730075932797323
45.03173828125,-0.03599155339947477
45.01953125,-0.034678209012807756
45.00732421875,-0.033359836542615956
44.9951171875,-0.03203711424387139
44.98291015625,-0.030710199129247114
44.970703125,-0.029379779054798768
44.95849609375,-0.028044654672807923
44.9462890625,-0.026706642423987896
44.93408203125,-0.025364538758093445
44.921875,-0.024019035029113175
44.90966796875,-0.02267029123019742
44.8974609375,-0.021318467785190465
44.88525390625,-0.019964265072440163
44.873046875,-0.018606766299240504
44.86083984375,-0.017246671480548086
44.8486328125,-0.015884685116129567
44.83642578125,-0.01451988527937308
44.82421875,-0.013152976184406882
44.81201171875,-0.01178466569774901
44.7998046875,-0.010414027747160694
44.78759765625,-0.009041769991644752
44.775390625,-0.007667749356539444
44.76318359375,-0.006293290245151605
44.7509765625,-0.0049171561611287265
44.73876953125,-0.003540058176127267
44.7265625,-0.002162160722099084
44.71435546875,-7.841769245112632E-4
44.7021484375,5.948254755563252E-4
44.68994140625,0.0019741333506279146
44.677734375,0.0033530330057548463
44.66552734375,0.00473245718467883
44.6533203125,0.006111692111675529
44.64111328125,0.0074905727848010705
44.62890625,0.008868385943783275
44.61669921875,0.010246063417236766
44.6044921875,0.011622891759131958
44.59228515625,0.012998706074876687
44.580078125,0.014373101564969166
44.56787109375,0.01574639371788917
44.5556640625,0.01711817772515416
44.54345703125,0.018487744370753578
44.53125,0.019856019589315516
44.51904296875,0.02122229379605182
44.5068359375,0.0225864030426307
44.49462890625,0.023948183594568427
44.482421875,0.025306931675568505
44.47021484375,0.026663565677137627
44.4580078125,0.0280173813245164
44.44580078125,0.029367679119520186
44.43359375,0.030715371603180105
44.42138671875,0.0320597587016466
44.4091796875,0.033400145950997856
44.39697265625,0.03473773710799117
44.384765625,0.03607124008594362
44.37255859375,0.03740079324399777
44.3603515625,0.03872570999925603
44.34814453125,0.04004688541285844
44.3359375,0.041363632148408144
44.32373046875,0.042675270401699425
44.3115234375,0.0439826861199068
44.29931640625,0.0452851986702971
44.287109375,0.046582650928469804
44.27490234375,0.04787437327409374
44.2626953125,0.049161238008230905
44.25048828125,0.050442574583287846
44.23828125,0.05171822823366838
44.22607421875,0.0529875408151666
44.2138671875,0.05425136929802348
44.20166015625,0.055508835391881596
44.189453125,0.0567602263447853
44.17724609375,0.058005170550510673
44.1650390625,0.059243517339681626
44.15283203125,0.060474628159768194
44.140625,0.06169981974355545
44.12841796875,0.06291699480196815
44.1162109375,0.06412746333145718
44.10400390625,0.0653305927204377
44.091796875,0.06652576287147752
44.07958984375,0.06771378014324929
44.0673828125,0.0688940231571699
44.05517578125,0.0700663486099304
44.04296875,0.07123015252360411
44.03076171875,0.07238621987885475
44.0185546875,0.07353420054666367
44.00634765625,0.07467299106377716
43.994140625,0.07580361646947135
43.98193359375,0.07692548421210918
43.9697265625,0.07803801668321145
43.95751953125,0.07914240133795757
43.9453125,0.0802367468977644
43.93310546875,0.08132223205888015
43.9208984375,0.08239786081506985
43.90869140625,0.08346435811752352
43.896484375,0.08452116376842751
43.88427734375,0.0855681486857272
43.8720703125,0.08660518492523907
43.85986328125,0.08763173914034521
43.84765625,0.0886485029044219
43.83544921875,0.08965494118996985
43.8232421875,0.09065075771855209
43.81103515625,0.09163617840278282
43.798828125,0.09261090757224201
43.78662109375,0.09357444434714014
43.7744140625,0.09452743746543582
43.76220703125,0.09546938425410449
43.75,0.09640016898163721
43.73779296875,0.0973193136495173
43.7255859375,0.09822743683510494
43.71337890625,0.09912405867590203
43.701171875,0.10000906873055533
43.68896484375,0.1008820128217773
43.6767578125,0.10174347814861492
43.66455078125,0.10259300860254558
43.65234375,0.10343016846171015
43.64013671875,0.104255703475597
43.6279296875,0.10506880750421682
43.61572265625,0.10586956544900043
43.603515625,0.1066578780898153
43.59130859375,0.10743334153342124
43.5791015625,0.10819647680409071
43.56689453125,0.10894658195147694
43.5546875,0.10968416079172788
43.54248046875,0.11040882043353008
43.5302734375,0.11112047059118688
43.51806640625,0.11181902250852215
43.505859375,0.1125041189303296
43.49365234375,0.11317621956829292
43.4814453125,0.11383470560194571
43.46923828125,0.11448016121509091
43.45703125,0.1151119526456791
43.44482421875,0.11573014606863985
43.4326171875,0.11633442595440315
43.42041015625,0.11692519720518262
43.408203125,0.11750214206935161
43.39599609375,0.1180651876606251
43.3837890625,0.11861404707126015
43.37158203125,0.11914908762897909
43.359375,0.11967002016128174
43.34716796875,0.12017657961036395
43.3349609375,0.12066929773988734
43.32275390625,0.12114732787121531
43.310546875,0.12161118810969428
43.29833984375,0.12206044989106463
43.2861328125,0.12249558319935401
43.27392578125,0.12291593197603565
43.26171875,0.12332176464413999
43.24951171875,0.12371295385033924
43.2373046875,0.12408930181858414
43.22509765625,0.12445105896948816
43.212890625,0.12479802516018766
43.20068359375,0.12513002553647185
43.1884765625,0.1254472804778315
43.17626953125,0.12574961274398933
43.1640625,0.12603698195937116
43.15185546875,0.12630924415183517
43.1396484375,0.1265665792415584
43.12744140625,0.12680884084864227
43.115234375,0.12703599573398333
43.10302734375,0.12724793111784327
43.0908203125,0.12744482831177265
43.07861328125,0.1276264149882039
43.06640625,0.12779291848585578
43.05419921875,0.12794404973021958
43.0419921875,0.12807997587422254
43.02978515625,0.12820056819318243
43.017578125,0.12830590392166838
43.00537109375,0.1283959150789585
42.9931640625,0.12847058655032306
42.98095703125,0.12852988450458697
42.96875,0.12857384469259323
42.95654296875,0.12860243083585907
42.9443359375,0.1286156351464855
42.93212890625,0.1286134556017282
42.919921875,0.12859588635308133
