Freq, Coherency
49.91455078125,0.03766415512069351
49.90234375,0.03855763204190228
49.89013671875,0.039046142048051076
49.8779296875,0.03912455037355203
49.86572265625,0.038792053453299905
49.853515625,0.03805182356225168
49.841312408447266,0.036912461971313204
49.8291015625,0.035383737155567065
49.81689453125,0.03348482751324362
49.8046875,0.031233192408944198
49.792484283447266,0.028651730450811774
49.780277252197266,0.025769896828975375
49.76806640625,0.022615779156887863
49.755859375,0.01922296438115049
49.74365234375,0.015628706607633228
49.7314453125,0.011869500238115994
49.71923828125,0.007983177117117093
49.70703125,0.0040135771006343125
49.69482421875,7.955827757571335E-7
49.6826171875,-0.004014512552851441
49.67041015625,-0.007987074837557352
49.658203125,-0.011876806630767118
49.64599609375,-0.015644195106873055
49.6337890625,-0.0192481190831021
49.62158203125,-0.02264936821937776
49.609375,-0.025813676147696234
49.59716796875,-0.02870875675876248
49.5849609375,-0.03130286662018017
49.57275390625,-0.03356867062830909
49.560546875,-0.035480935019496805
49.54833984375,-0.03702244236500546
49.5361328125,-0.038174901433410825
49.52392578125,-0.03892723012797664
49.51171875,-0.03927024359668792
49.49951171875,-0.03920098750894699
49.4873046875,-0.038719817921827035
49.47509765625,-0.0378320659743935
49.462890625,-0.03654625937085217
49.450687408447266,-0.034876656849852486
49.4384765625,-0.03283898809920381
49.42626953125,-0.03045826958706597
49.4140625,-0.02775516644231021
49.40185546875,-0.02475972088531751
49.3896484375,-0.021504669440601042
49.37744140625,-0.01802158627860755
49.365234375,-0.014348252245525595
49.35302734375,-0.010524754849518184
49.3408203125,-0.006588220793104967
49.32861328125,-0.0025830053064916578
49.31640625,0.0014502782485658506
49.30419921875,0.005470917715208314
49.2919921875,0.009435069564549576
49.27978515625,0.013301062116760298
49.267578125,0.017028244788959694
49.255367279052734,0.02057712369151091
49.243167877197266,0.023910237330026868
49.23095703125,0.026993447534639278
49.218753814697266,0.029793216199781914
49.206546783447266,0.03228151264953692
49.1943359375,0.03443103024335415
49.182132720947266,0.03621896343671354
49.169925689697266,0.03762734368669393
49.15771484375,0.038640595895267596
49.145503997802734,0.039248110638414054
49.13330078125,0.03944340590020218
49.12109375,0.039224378312146195
49.10888671875,0.03859310104228649
49.0966796875,0.03755610454651983
49.08447265625,0.036124184423846316
49.072265625,0.034313076264911986
49.06005859375,0.032140288874131666
49.0478515625,0.02962920536177774
49.03564453125,0.026807299945563978
49.0234375,0.023701923474044123
49.01123046875,0.02034669190139316
48.9990234375,0.01677824670043158
48.98681640625,0.013031219567912476
48.974609375,0.009144809072570493
48.96240234375,0.005164362512586254
48.9501953125,0.0011254919708758165
48.93798828125,-0.00292304301503643
48.92578125,-0.006943477785516713
48.913578033447266,-0.01089075034916604
48.9013671875,-0.014726972805540969
48.889156341552734,-0.01840788891089975
48.876953125,-0.021896849511250902
48.86474609375,-0.02515632753167568
48.852542877197266,-0.028151384235318135
48.84033203125,-0.03085211866122381
48.828125,-0.03322956175258242
48.81591796875,-0.03525767827338801
48.8037109375,-0.03691722584718082
48.79150390625,-0.03818853838001035
48.779296875,-0.03905886197824658
48.76708984375,-0.03951894954396986
48.7548828125,-0.039563926966084066
48.742679595947266,-0.03919321113252585
48.73046875,-0.038410629069839664
48.71826171875,-0.03722415653444799
48.7060546875,-0.03564620848812017
48.69384765625,-0.03369326795292092
48.681640625,-0.03138579616907213
48.66943359375,-0.028747889470914195
48.6572265625,-0.02580721372994028
48.64501953125,-0.022593323322062382
48.6328125,-0.019142368164002173
48.62060546875,-0.015490854194296438
48.6083984375,-0.011674223548655376
48.59619140625,-0.007732426270652309
48.583984375,-0.0037114501079216996
48.57177734375,3.51121182483105E-4
48.5595703125,0.0044125733495554605
48.54736328125,0.008425566538142422
48.53515625,0.012352631962262743
48.52294921875,0.016152301544462195
48.5107421875,0.019781722378143674
48.49853515625,0.02320288123164348
48.486328125,0.026383631806898542
48.47412109375,0.029286673968245074
48.4619140625,0.03188265740712885
48.44970703125,0.034144293913992645
48.4375,0.0360476947447489
48.42529296875,0.03757274882731553
48.4130859375,0.03870337485625138
48.40087890625,0.03942756805568967
48.388671875,0.039737653388020544
48.37646484375,0.03963015567501059
48.3642578125,0.039105932481515296
48.35205078125,0.03817074543724485
48.33984375,0.03683361291273119
48.32763671875,0.03510950138210865
48.3154296875,0.03301602725721048
48.30322265625,0.030575039495820678
48.291015625,0.027812165868806592
48.27880859375,0.024756283830665356
48.2666015625,0.02143946678352069
48.25439453125,0.01789511524911193
48.2421875,0.014163114423782893
48.22998046875,0.010281378463571926
48.2177734375,0.006289020642480493
48.205570220947266,0.00223231909952087
48.193359375,-0.0018529448403563039
48.18115234375,-0.005915370701582689
48.1689453125,-0.009919789814031165
48.15673828125,-0.013819449694860531
48.144527435302734,-0.01757597041197525
48.13232421875,-0.021146542059323523
48.1201171875,-0.024498172035862777
48.10791015625,-0.027591895876844304
48.095703125,-0.030396422191996276
48.083499908447266,-0.03288244564899465
48.0712890625,-0.035023973920870775
48.059085845947266,-0.036797390401102296
48.046875,-0.03818478250050119
48.03466796875,-0.039170790032770735
48.0224609375,-0.03974555720543783
48.01025390625,-0.0399025219386041
47.998046875,-0.03964016959734956
47.98583984375,-0.03896086736830635
47.9736328125,-0.03787214358912981
47.96142578125,-0.03638451400606427
47.94921875,-0.034514668736625655
47.93701171875,-0.03228161725734496
47.9248046875,-0.029708791867846068
47.91259765625,-0.026821917863708744
47.900390625,-0.023653480694550935
47.88818359375,-0.020235709541839883
47.8759765625,-0.01660294535818541
47.86376953125,-0.012794638403642273
47.8515625,-0.00885231621176393
47.83935546875,-0.0048144030304448785
47.8271484375,-7.264348651692495E-4
47.81494140625,0.003371831402888662
47.802734375,0.007432568490206622
47.79052734375,0.011420906341007953
47.7783203125,0.01528857268745395
47.76611328125,0.018995026693869852
47.75390625,0.02250287495833089
47.74169921875,0.025775110493270203
47.7294921875,0.02877846172664766
47.71728515625,0.03147993461948065
47.705078125,0.03385104088404019
47.69287109375,0.035866037563304316
47.6806640625,0.03750467959980699
47.66845703125,0.03875001781828795
47.65625,0.03958790767868819
47.64404296875,0.040010092415464604
47.6318359375,0.04001161306331825
47.619625091552734,0.039592397982432054
47.607421875,0.03875698458235387
47.59521484375,0.03751414284524305
47.5830078125,0.03587604452903494
47.57080078125,0.03386109142412562
47.55859375,0.03148778621060521
47.54638671875,0.028784713265387188
47.5341796875,0.02577721751755459
47.52197265625,0.022499193020817463
47.509765625,0.01898246005671815
47.497562408447266,0.015266360223960268
47.4853515625,0.011386401119405342
47.47314453125,0.007386866044214384
47.4609375,0.003310224795299703
47.44873046875,-8.038827995330576E-4
47.4365234375,-0.004908993174935796
47.42431640625,-0.00896363777473275
47.412109375,-0.012926625494599874
47.39990234375,-0.016756124803101267
47.3876953125,-0.020407514457987323
47.37548828125,-0.023846711614059532
47.36328125,-0.027036015036395047
47.35107421875,-0.02994073364844533
47.3388671875,-0.03253349055842239
47.326656341552734,-0.034783517052765216
47.314453125,-0.03666800240059214
47.30224609375,-0.038167994047913587
47.2900390625,-0.03926662310322183
47.27783203125,-0.03995309688399684
47.265625,-0.040219575309341976
47.253421783447266,-0.04006326024954141
47.2412109375,-0.039485655174248326
47.22900390625,-0.03849308193305388
47.216796875,-0.03709449063230301
47.20458984375,-0.03530592159895468
47.1923828125,-0.03314556275012847
47.18017578125,-0.030636058051387267
47.16796875,-0.027804883988542608
47.15576171875,-0.024678214495922637
47.1435546875,-0.021293752301770927
47.13134765625,-0.017683179693979895
47.119140625,-0.013885746224381228
47.10693359375,-0.009941237698950162
47.094722747802734,-0.0058914940473086454
47.08251953125,-0.0017780434008274593
47.0703125,0.002354837228777542
47.05810546875,0.006463980306902241
47.0458984375,0.010506275094757355
47.03369140625,0.014437614522038686
47.021484375,0.01821972295132669
47.00927734375,0.021812537755370124
46.9970703125,0.02517549204379012
46.98486328125,0.028274565234294186
46.97265625,0.031076054156223734
46.96044921875,0.033553503508597156
46.9482421875,0.035677723918013514
46.93603515625,0.03742729011232403
46.923828125,0.03878324905546347
46.91162109375,0.039732588065952215
46.8994140625,0.04026375473881461
46.88720703125,0.04037191148286702
46.875,0.04005531628997622
46.862789154052734,0.03931750786008543
46.8505859375,0.03816585563267195
46.83837890625,0.03661262493190839
46.826171875,0.034673923342144426
46.81396484375,0.03237103300017754
46.8017578125,0.029725193539830014
46.78955078125,0.026766990283896928
46.77734375,0.023525223870555067
46.76513671875,0.02003779715809233
46.7529296875,0.01633739096955
46.74072265625,0.012462691147206363
46.728515625,0.008458946998732744
46.71630859375,0.0043620598236462395
46.7041015625,2.1976256483713846E-4
46.69189453125,-0.003927512715091608
46.6796875,-0.008031392829959039
46.66748046875,-0.012053521983086136
46.6552734375,-0.01595140452908226
46.64306640625,-0.01967961819908565
46.630859375,-0.02320465576596953
46.618656158447266,-0.026485470971508072
46.6064453125,-0.02948917041198377
46.59423828125,-0.032181606098033194
46.58203125,-0.034538263599050156
46.56982421875,-0.0365313525622569
46.5576171875,-0.03814131686612763
46.54541015625,-0.039349503456176875
46.533203125,-0.04014496189601406
46.52099609375,-0.040518116846980194
46.5087890625,-0.040465030502004805
46.49658203125,-0.039986380222220924
46.484375,-0.039087074252737164
46.47216796875,-0.03777588652174971
46.4599609375,-0.03606749446425484
46.44775390625,-0.033979367908427545
46.435546875,-0.03153231418302888
46.42333984375,-0.028755016232641626
46.4111328125,-0.02567104397532276
46.39892578125,-0.02231859879467881
46.38671875,-0.018730501718378346
46.37451171875,-0.014942993506318331
46.3623046875,-0.010997207356917846
46.35009765625,-0.006937810101885034
46.337890625,-0.00280120666293016
46.32568359375,0.001365979518854079
46.3134765625,0.00551669743717593
46.30126953125,0.009613687895461584
46.2890625,0.013610588117316809
46.27685546875,0.017463870527211278
46.2646484375,0.021134469276803253
46.25244140625,0.02458509747121301
46.240234375,0.02777789430600092
46.22802734375,0.030677061694272086
46.2158203125,0.03325649978367146
46.20361328125,0.035486610645110356
46.19140625,0.03734382991207752
46.17919921875,0.03880753318439952
46.1669921875,0.03986447789593284
46.15478515625,0.04050214222973567
46.142578125,0.040713703988382415
46.13037109375,0.040496989323751155
46.1181640625,0.0398543220979368
46.10595703125,0.038791863245789315
46.09375,0.03732150441992915
46.08154296875,0.03545745357572319
46.0693359375,0.033219723816067144
46.05712890625,0.03063176646515277
46.044921875,0.02772189082017996
46.03271484375,0.024519736942692362
46.0205078125,0.021057454948215336
46.00830078125,0.017372621125412897
45.99609375,0.013505512219337764
45.98388671875,0.00949373394035837
45.9716796875,0.005382594993253189
45.95947265625,0.0012104511068910865
45.947265625,-0.0029722721457160653
45.93505859375,-0.007126484493636176
45.9228515625,-0.01120522080940878
45.91064453125,-0.01516874555760013
45.8984375,-0.018973687979212662
45.88623046875,-0.02257995973795546
45.8740234375,-0.025949552653660824
45.86181640625,-0.02904465428164723
45.849609375,-0.031837410450392255
45.83740234375,-0.03429583749203354
45.8251953125,-0.036394698409471224
45.81298828125,-0.03810961278624691
45.80078125,-0.03942464777404051
45.78857421875,-0.04032510281175717
45.7763671875,-0.0408012859869424
45.76416015625,-0.04084844634301178
45.751953125,-0.04046570020625705
45.73974609375,-0.03965736143134704
45.7275390625,-0.03843118624071896
45.71533203125,-0.036800202127123406
45.703125,-0.03478146546134971
45.69091796875,-0.03239611815390228
45.6787109375,-0.02967030392314904
45.66650390625,-0.02662926000164481
45.654296875,-0.02330958731350649
45.64208984375,-0.019742435242036876
45.629878997802734,-0.01596533893159719
45.61767578125,-0.012021570966711345
45.60546875,-0.00795063975969039
45.59326171875,-0.003793347082918319
45.5810546875,4.0659437275809715E-4
45.56884765625,0.004600153652719226
45.556640625,0.008748088808091109
45.54443359375,0.012805075526994796
45.5322265625,0.01672839073073472
45.52001953125,0.0204780949019617
45.5078125,0.02401048077691666
45.49560546875,0.027292556750948403
45.483394622802734,0.03028803505015976
45.47119140625,0.03296698461984969
45.458984375,0.03529752279728116
45.44677734375,0.037258184209924806
45.4345703125,0.03882722663771478
45.42236328125,0.039988446621351356
45.41015625,0.04072836738230116
45.39794921875,0.04104017049609902
45.3857421875,0.04092006828943185
45.37353515625,0.04036948665526076
45.361328125,0.03939374421444834
45.34912109375,0.03800314819551376
45.3369140625,0.036211402714992326
45.32470703125,0.0340396095461058
45.3125,0.031507156240630586
45.30029296875,0.028643305641843947
45.2880859375,0.025477255274250935
45.27587890625,0.022042160884447184
45.263671875,0.0183741423829997
45.25146484375,0.014510239003779672
45.2392578125,0.010495608265801848
45.22705078125,0.006366277799970164
45.21484375,0.0021720307995988486
45.20263671875,-0.00204946796782601
45.1904296875,-0.006248943642322229
45.17822265625,-0.010385352889691047
45.166015625,-0.014411998819771371
45.15380859375,-0.018288011620379126
45.1416015625,-0.021972658626397624
45.12939453125,-0.025428321806552672
45.1171875,-0.028615941166796225
45.10498046875,-0.031503220144202496
45.0927734375,-0.03405976508319281
45.08056640625,-0.03625930423397786
45.068359375,-0.038076279801458536
45.05615234375,-0.039494262729365036
45.0439453125,-0.04049634926666232
45.03173828125,-0.0410726331060788
45.01953125,-0.041216522971628575
45.00732421875,-0.0409266076331903
44.9951171875,-0.04020554231231222
44.98291015625,-0.03906131828474381
44.970703125,-0.03750569254704486
44.95849609375,-0.03555406845929675
44.9462890625,-0.03322936599526602
44.93408203125,-0.03055236877735769
44.921875,-0.027552835285047688
44.90966796875,-0.024263573139821002
44.8974609375,-0.02071664548306423
44.88525390625,-0.016952059769094523
44.873046875,-0.013007974738621217
44.86083984375,-0.008924325017140317
44.8486328125,-0.004747212015344748
44.83642578125,-5.189322840800564E-4
44.82421875,0.003717579878450165
44.81201171875,0.007914462513838176
44.7998046875,0.012030803215498414
44.78759765625,0.016020070911623652
44.775390625,0.019843247389238833
44.76318359375,0.023457095977276004
44.7509765625,0.0268263395153406
44.73876953125,0.029912839323389423
44.7265625,0.032686356085179426
44.71435546875,0.03511547450838112
44.7021484375,0.037176426095242875
44.68994140625,0.038846375570586206
44.677734375,0.04010681135641876
44.66552734375,0.04094629607825772
44.6533203125,0.04135473442352319
44.64111328125,0.04132770532136631
44.62890625,0.040865640248347296
44.61669921875,0.03997292209860027
44.6044921875,0.03865893097561848
44.59228515625,0.03693739022174423
44.580078125,0.03482722437061866
44.56787109375,0.03234990062413308
44.5556640625,0.029530281617768113
44.54345703125,0.026400135294352294
44.53125,0.022989881242900724
44.51904296875,0.0193365346356368
44.5068359375,0.015478507726239977
44.49462890625,0.011456379238590518
44.482421875,0.007314116937554548
44.47021484375,0.0030920569784979868
44.4580078125,-0.0011637426573434275
44.44580078125,-0.0054068035269468516
44.43359375,-0.009595770225607399
44.42138671875,-0.013684830203620208
44.4091796875,-0.01762936727886219
44.39697265625,-0.021390898741141754
44.384765625,-0.024928170027705834
44.37255859375,-0.028203861731451507
44.3603515625,-0.03118228893739873
44.34814453125,-0.033835284886893
44.3359375,-0.03613156565465465
44.32373046875,-0.03804724268669637
44.3115234375,-0.03956354024719515
44.29931640625,-0.040663545618219527
44.287109375,-0.04133555679474191
44.27490234375,-0.04157236931309139
44.2626953125,-0.041371553963689446
44.25048828125,-0.04073460013639356
44.23828125,-0.03966857919210184
44.22607421875,-0.03818510437294028
44.2138671875,-0.03629851687869047
44.20166015625,-0.03403004346890925
44.189453125,-0.03140168566762554
44.17724609375,-0.028440660837606442
44.1650390625,-0.025180314359280906
44.15283203125,-0.02165527316185468
44.140625,-0.017898299663169113
44.12841796875,-0.013953245186360682
44.1162109375,-0.009860070050195815
44.10400390625,-0.0056618956403393815
44.091796875,-0.001404593095878791
44.07958984375,0.002871986980446733
44.0673828125,0.0071178876703220165
44.05517578125,0.01129000628566191
44.04296875,0.0153443262687937
44.03076171875,0.01923821768644547
44.0185546875,0.02293056832613507
44.00634765625,0.026382387731305208
43.994140625,0.029557341697652614
43.98193359375,0.03242186479073677
43.9697265625,0.03494566799784222
43.95751953125,0.03710291243342105
43.9453125,0.038869021611564455
43.93310546875,0.040226252786631944
43.9208984375,0.04115988721279558
43.90869140625,0.04166081405454578
43.896484375,0.04172280298418337
43.88427734375,0.0413451242918027
43.8720703125,0.04053191937714883
43.85986328125,0.03929158978958343
43.84765625,0.03763704698282676
43.83544921875,0.035584761219045705
43.8232421875,0.033158822370031246
43.81103515625,0.030380942201985638
43.798828125,0.027283274719643216
43.78662109375,0.023897410724506404
43.7744140625,0.02025884294132218
43.76220703125,0.01640436493578355
43.75,0.012377443785866358
43.73779296875,0.008219072213629903
43.7255859375,0.00397290356563101
43.71337890625,-3.1794401964847606E-4
43.701171875,-0.004606652314308503
43.68896484375,-0.008844762805695409
43.6767578125,-0.012994146798647917
43.66455078125,-0.017006239666845054
43.65234375,-0.02084029448770367
43.64013671875,-0.024457307075667668
43.6279296875,-0.02781631838250238
43.61572265625,-0.03088440308677422
43.603515625,-0.033627809365484436
43.59130859375,-0.03601582227923997
43.5791015625,-0.03802686513318602
43.56689453125,-0.039637090724701354
43.5546875,-0.04083030602641167
43.54248046875,-0.041594008908676254
43.5302734375,-0.04191949312477414
43.51806640625,-0.04180320352925258
43.505859375,-0.041246840639830404
43.49365234375,-0.0402552831278102
43.4814453125,-0.03883975878786482
43.46923828125,-0.03701395467731469
43.45703125,-0.034798388527283786
43.44482421875,-0.03221461863827302
43.4326171875,-0.029291758676489258
43.42041015625,-0.026058222711171117
43.408203125,-0.022549091756846634
43.39599609375,-0.018801276294954435
43.3837890625,-0.014857333423109924
43.37158203125,-0.010752676486093616
43.359375,-0.006533508635486704
43.34716796875,-0.0022459655063937077
43.3349609375,0.002069846187873826
43.32275390625,0.006361695518287481
43.310546875,0.0105894070778287
43.29833984375,0.014705110871556315
43.2861328125,0.018670152226920728
43.27392578125,0.02243649501719286
43.26171875,0.025967642960800147
43.24951171875,0.02922746938081324
43.2373046875,0.03217904783159087
43.22509765625,0.03479349957041569
43.212890625,0.03704194564819972
43.20068359375,0.038899929441816
43.1884765625,0.040349215922439494
43.17626953125,0.041373602236890246
43.1640625,0.04196216905664242
43.15185546875,0.04210861746434908
43.1396484375,0.04181119520506677
43.12744140625,0.0410729913652582
43.115234375,0.03990163223951571
43.10302734375,0.03831004777988851
43.0908203125,0.036313642529922294
43.07861328125,0.033934896914938624
43.06640625,0.03119576078690885
43.05419921875,0.028129285299150767
43.0419921875,0.024764279662795576
43.02978515625,0.021138745196973407
43.017578125,0.017286469960511138
