Freq, Coherency
49.91455078125,0.10536470417635846
49.90234375,0.10533440974756564
49.89013671875,0.10528314039819339
49.8779296875,0.10521090523558736
49.86572265625,0.10511770635952455
49.853515625,0.1050035601904504
49.841312408447266,0.10486852946399024
49.8291015625,0.10471244274629701
49.81689453125,0.10453564349786205
49.8046875,0.10433800863897588
49.792484283447266,0.10411938318227906
49.780277252197266,0.10388006787558228
49.76806640625,0.10362003846187258
49.755859375,0.10333929744529022
49.74365234375,0.1030378088892148
49.7314453125,0.1027159676415732
49.71923828125,0.10237347737555533
49.70703125,0.10201054274226423
49.69482421875,0.1016271951927263
49.6826171875,0.1012235233227397
49.67041015625,0.10079962378706794
49.658203125,0.10035553422011068
49.64599609375,0.0998913583613045
49.6337890625,0.09940701258222244
49.62158203125,0.09890312664439202
49.609375,0.09837923325012682
49.59716796875,0.09783543553552085
49.5849609375,0.09727221311218508
49.57275390625,0.09668948845989853
49.560546875,0.09608740279790039
49.54833984375,0.0954660118939609
49.5361328125,0.0948254957423045
49.52392578125,0.09416564955979671
49.51171875,0.09348742433959262
49.49951171875,0.09278991241996672
49.4873046875,0.09207399506111007
49.47509765625,0.09133960858881421
49.462890625,0.09058682229946972
49.450687408447266,0.08981605927919231
49.4384765625,0.08902646568321726
49.42626953125,0.08821978933902794
49.4140625,0.08739474767120214
49.40185546875,0.08655238679676232
49.3896484375,0.0856926302897653
49.37744140625,0.08481556032616365
49.365234375,0.08392107658402133
49.35302734375,0.08301033521085434
49.3408203125,0.08208216241390595
49.32861328125,0.08113773778532539
49.31640625,0.0801773098922889
49.30419921875,0.07919996528013877
49.2919921875,0.07820694723877397
49.27978515625,0.0771977621545864
49.267578125,0.07617330521586275
49.255367279052734,0.07513315626159937
49.243167877197266,0.07407793378196037
49.23095703125,0.07300791991006547
49.218753814697266,0.07192297713412159
49.206546783447266,0.07082348515720986
49.1943359375,0.06970932782545822
49.182132720947266,0.06858165766838449
49.169925689697266,0.06743930840118277
49.15771484375,0.06628374092778223
49.145503997802734,0.0651142856653243
49.13330078125,0.06393224944769269
49.12109375,0.06273641036019888
49.10888671875,0.061527775250118114
49.0966796875,0.0603070062488988
49.08447265625,0.05907349829736463
49.072265625,0.05782884182592478
49.06005859375,0.056571435457228814
49.0478515625,0.05530288631344274
49.03564453125,0.054023074115140714
49.0234375,0.052731676165384336
49.01123046875,0.05142990290422344
48.9990234375,0.050117630534750456
48.98681640625,0.048794528986661125
48.974609375,0.04746183874921601
48.96240234375,0.046119432727324994
48.9501953125,0.044766437826540335
48.93798828125,0.043405731097003034
48.92578125,0.042035030324106104
48.913578033447266,0.04065604137767702
48.9013671875,0.03926823016714426
48.889156341552734,0.037872317408123184
48.876953125,0.03646882847733998
48.86474609375,0.03505777721726624
48.852542877197266,0.0336393418641744
48.84033203125,0.03221353068035578
48.828125,0.030781320020657726
48.81591796875,0.02934269251993874
48.8037109375,0.027897290270952627
48.79150390625,0.026446470047704007
48.779296875,0.02498951501232967
48.76708984375,0.023527214995555892
48.7548828125,0.022060440571915026
48.742679595947266,0.020589290677481057
48.73046875,0.019112828958659046
48.71826171875,0.01763206252083486
48.7060546875,0.016147410193102785
48.69384765625,0.01465968212919078
48.681640625,0.01316873381157332
48.66943359375,0.011674196980636362
48.6572265625,0.010176957177788838
48.64501953125,0.008677311866649096
48.6328125,0.007176078976185379
48.62060546875,0.005673112155015707
48.6083984375,0.0041680413516656635
48.59619140625,0.002661759620019683
48.583984375,0.0011551622398300327
48.57177734375,-3.52120242243871E-4
48.5595703125,-0.0018602358281854634
48.54736328125,-0.0033677668710519345
48.53515625,-0.004875604888930495
48.52294921875,-0.006382853668817048
48.5107421875,-0.007889212922266499
48.49853515625,-0.009393267520862291
48.486328125,-0.010896948536162944
48.47412109375,-0.01239884022703675
48.4619140625,-0.01389805095070315
48.44970703125,-0.015395466758159585
48.4375,-0.01689019586039869
48.42529296875,-0.018381351176817884
48.4130859375,-0.01986981376086056
48.40087890625,-0.021354696388881586
48.388671875,-0.022835190767799135
48.37646484375,-0.02431144326782474
48.3642578125,-0.02578381272784025
48.35205078125,-0.02725142048707479
48.33984375,-0.02871397308999493
48.32763671875,-0.030171178012797065
48.3154296875,-0.03162217137550319
48.30322265625,-0.033067809786693075
48.291015625,-0.03450666180307442
48.27880859375,-0.03593957670135911
48.2666015625,-0.037365697541912844
48.25439453125,-0.038784738610964924
48.2421875,-0.04019641553133695
48.22998046875,-0.04159989215611949
48.2177734375,-0.04299599646730537
48.205570220947266,-0.04438346283753382
48.193359375,-0.045763300878039384
48.18115234375,-0.04713340591668314
48.1689453125,-0.048495015265821555
48.15673828125,-0.0498473122139131
48.144527435302734,-0.05118991167345593
48.13232421875,-0.05252235950302001
48.1201171875,-0.053845100750127134
48.10791015625,-0.05515745430924229
48.095703125,-0.056458644063042206
48.083499908447266,-0.05774903791126075
48.0712890625,-0.0590290560426373
48.059085845947266,-0.06029685267236606
48.046875,-0.06155325219947991
48.03466796875,-0.06279781921136264
48.0224609375,-0.06403019579202032
48.01025390625,-0.06524965394385412
47.998046875,-0.06645691156571436
47.98583984375,-0.06765165152243884
47.9736328125,-0.06883280617255651
47.96142578125,-0.07000055240622723
47.94921875,-0.07115420102994087
47.93701171875,-0.07229443070723718
47.9248046875,-0.0734201100868728
47.91259765625,-0.07453190117018699
47.900390625,-0.07562913119144182
47.88818359375,-0.07671152516121355
47.8759765625,-0.07777897000351792
47.86376953125,-0.07883119581299888
47.8515625,-0.07986798915180908
47.83935546875,-0.08088913959934184
47.8271484375,-0.08189404579644745
47.81494140625,-0.08288363732748637
47.802734375,-0.08385624703572532
47.79052734375,-0.08481316550355762
47.7783203125,-0.08575305456297123
47.76611328125,-0.08667574261693455
47.75390625,-0.08758208140777296
47.74169921875,-0.08847054343782491
47.7294921875,-0.08934196603482199
47.71728515625,-0.09019581664925688
47.705078125,-0.09103220691460776
47.69287109375,-0.09185006749755324
47.6806640625,-0.09265016972035704
47.66845703125,-0.0934320228193454
47.65625,-0.0941954293921258
47.64404296875,-0.09494030759381569
47.6318359375,-0.0956664663927979
47.619625091552734,-0.09637369719946542
47.607421875,-0.097062266601982
47.59521484375,-0.09773111832605544
47.5830078125,-0.09838094348145797
47.57080078125,-0.09901130910770622
47.55859375,-0.09962238394382347
47.54638671875,-0.10021329761126548
47.5341796875,-0.10078483381727248
47.52197265625,-0.10133602698084161
47.509765625,-0.10186739895248531
47.497562408447266,-0.10237863485738372
47.4853515625,-0.10286974032957089
47.47314453125,-0.10334032630312559
47.4609375,-0.1037904276934102
47.44873046875,-0.1042199937339702
47.4365234375,-0.1046287535254075
47.42431640625,-0.10501707410506221
47.412109375,-0.10538443853843753
47.39990234375,-0.10573090617226381
47.3876953125,-0.10605638714402131
47.37548828125,-0.10636084313249868
47.36328125,-0.10664428594371432
47.35107421875,-0.1069063582144882
47.3388671875,-0.10714740206696734
47.326656341552734,-0.10736712046577815
47.314453125,-0.10756539053520728
47.30224609375,-0.10774240799840192
47.2900390625,-0.10789788754950669
47.27783203125,-0.1080320231482746
47.265625,-0.10814462404446346
47.253421783447266,-0.10823571520289531
47.2412109375,-0.10830526139533139
47.22900390625,-0.10835325677441321
47.216796875,-0.10837969024547771
47.20458984375,-0.10838452746015292
47.1923828125,-0.10836777700758561
47.18017578125,-0.10832941883049729
47.16796875,-0.10826950940986815
47.15576171875,-0.10818792976875119
47.1435546875,-0.10808487572571311
47.13134765625,-0.1079601814644117
47.119140625,-0.10781405090531175
47.10693359375,-0.10764629089639927
47.094722747802734,-0.10745711571091195
47.08251953125,-0.10724637567827695
47.0703125,-0.10701430375874595
47.05810546875,-0.10676086739985412
47.0458984375,-0.10648608662843714
47.03369140625,-0.10619003752578608
47.021484375,-0.10587263100224778
47.00927734375,-0.10553415825895965
46.9970703125,-0.10517444699168815
46.98486328125,-0.10479381212188844
46.97265625,-0.10439222337647008
46.96044921875,-0.1039695660657694
46.9482421875,-0.10352623041324642
46.93603515625,-0.10306199253453176
46.923828125,-0.10257745609560531
46.91162109375,-0.10207199388841261
46.8994140625,-0.10154626448135298
46.88720703125,-0.10100014437993732
46.875,-0.10043356281068014
46.862789154052734,-0.09984686335456046
46.8505859375,-0.09924021924698345
46.83837890625,-0.09861372947426225
46.826171875,-0.09796717453083915
46.81396484375,-0.09730142236293655
46.8017578125,-0.09661561346270807
46.78955078125,-0.09591036557043733
46.77734375,-0.0951858141065637
46.76513671875,-0.09444265631746078
46.7529296875,-0.09367993350285062
46.74072265625,-0.09289833644453895
46.728515625,-0.09209833560736168
46.71630859375,-0.09127973987659788
46.7041015625,-0.09044245337499604
46.69189453125,-0.08958691811310339
46.6796875,-0.08871395351662395
46.66748046875,-0.08782243459441964
46.6552734375,-0.08691317469656754
46.64306640625,-0.0859867197298526
46.630859375,-0.08504251776946221
46.618656158447266,-0.08408136815526195
46.6064453125,-0.08310303940505662
46.59423828125,-0.08210820123723746
46.58203125,-0.08109634371522102
46.56982421875,-0.0800680537324605
46.5576171875,-0.07902389589422674
46.54541015625,-0.07796377335336542
46.533203125,-0.07688741409709846
46.52099609375,-0.0757954440230599
46.5087890625,-0.07468807659343467
46.49658203125,-0.07356597459108821
46.484375,-0.07242847115102075
46.47216796875,-0.071276630264851
46.4599609375,-0.07010988053020746
46.44775390625,-0.0689293156847571
46.435546875,-0.06773423456857854
46.42333984375,-0.06652581512468442
46.4111328125,-0.06530285453436882
46.39892578125,-0.06406752338875726
46.38671875,-0.06281860841471053
46.37451171875,-0.061556840331321284
46.3623046875,-0.060282467153268855
46.35009765625,-0.05899624991973336
46.337890625,-0.057697876858967226
46.32568359375,-0.05638721068222093
46.3134765625,-0.05506548086834788
46.30126953125,-0.05373190359645138
46.2890625,-0.05238726138639217
46.27685546875,-0.05103181923521143
46.2646484375,-0.049666385729719695
46.25244140625,-0.04829015151907416
46.240234375,-0.04690392536977314
46.22802734375,-0.045508533883291624
46.2158203125,-0.044103150233738765
46.20361328125,-0.042688601202935654
46.19140625,-0.041265166217744585
46.17919921875,-0.039833693611450546
46.1669921875,-0.038393335548305
46.15478515625,-0.036944940542318165
46.142578125,-0.035488866535105176
46.13037109375,-0.034025259027928356
46.1181640625,-0.03255447877445513
46.10595703125,-0.031076816932997967
46.09375,-0.029593153378840352
46.08154296875,-0.028102609997920823
46.0693359375,-0.02660606684553038
46.05712890625,-0.025103820524563163
46.044921875,-0.02359616885308089
46.03271484375,-0.022084009029578206
46.0205078125,-0.02056644651383365
46.00830078125,-0.019043851510327413
45.99609375,-0.01751818242632032
45.98388671875,-0.01598801132345605
45.9716796875,-0.01445485005714398
45.95947265625,-0.012917184644197778
45.947265625,-0.011377747694036258
45.93505859375,-0.009835022922604091
45.9228515625,-0.008290000144108044
45.91064453125,-0.006742835348860287
45.8984375,-0.0051939118400453925
45.88623046875,-0.0036435377880536454
45.8740234375,-0.002092021734762799
45.86181640625,-5.397485158836773E-4
45.849609375,0.0010131247184015718
45.83740234375,0.0025662127283371007
45.8251953125,0.004119206100198924
45.81298828125,0.005671182517415121
45.80078125,0.007223595099407636
45.78857421875,0.00877444780021955
45.7763671875,0.010323356757669466
45.76416015625,0.011871236444166343
45.751953125,0.01341770026453844
45.73974609375,0.014960761255631285
45.7275390625,0.016501865214714435
45.71533203125,0.01804062595512063
45.703125,0.01957567206991438
45.69091796875,0.021107229358990016
45.6787109375,0.02263491705397214
45.66650390625,0.024158579214682868
45.654296875,0.02567723741213815
45.64208984375,0.027191787398476764
45.629878997802734,0.028702313874979096
45.61767578125,0.030206068690089533
45.60546875,0.031704602217875584
45.59326171875,0.0331972937230755
45.5810546875,0.03468377072033204
45.56884765625,0.03616366310234082
45.556640625,0.037636819017942476
45.54443359375,0.0391028705257693
45.5322265625,0.04056202676086173
45.52001953125,0.04201298599793994
45.5078125,0.04345589244804548
45.49560546875,0.044890597599517995
45.483394622802734,0.04631662210270547
45.47119140625,0.047734529450639704
45.458984375,0.049142138950554894
45.44677734375,0.050541373752860955
45.4345703125,0.05192988081790682
45.42236328125,0.05330998060250962
45.41015625,0.05467826404307938
45.39794921875,0.056036495399380964
45.3857421875,0.057384521399414426
45.37353515625,0.058720874852834525
45.361328125,0.06004595128674556
45.34912109375,0.06135935401420095
45.3369140625,0.06266145808365482
45.32470703125,0.06395084590982163
45.3125,0.0652278995690401
45.30029296875,0.06649273296373198
45.2880859375,0.06774372456421254
45.27587890625,0.06898247515093484
45.263671875,0.07020738113932067
45.25146484375,0.07141904192300011
45.2392578125,0.07261590463359031
45.22705078125,0.07379950035303091
45.21484375,0.07496823874729462
45.20263671875,0.07612240899159488
45.1904296875,0.077262111072397
45.17822265625,0.07838632576806774
45.166015625,0.07949560243648661
45.15380859375,0.08058889576071784
45.1416015625,0.08166647674808881
45.12939453125,0.08272843692404905
45.1171875,0.08377382600227463
45.10498046875,0.08480275130604016
45.0927734375,0.0858154511741863
45.08056640625,0.08681096831474684
45.068359375,0.08778940537750855
45.05615234375,0.08875098786987935
45.0439453125,0.08969480631786235
45.03173828125,0.09062132061598134
45.01953125,0.09152965670513036
45.00732421875,0.0924203457368323
44.9951171875,0.09329254458167549
44.98291015625,0.09414667766406991
44.970703125,0.09498193878318434
44.95849609375,0.09579853658282815
44.9462890625,0.09659622342308258
44.93408203125,0.09737517917575544
44.921875,0.09813492467037799
44.90966796875,0.09887505053517796
44.8974609375,0.09959591584123723
44.88525390625,0.10029683936727048
44.873046875,0.10097822933364713
44.86083984375,0.1016396638554483
44.8486328125,0.10228053822450545
44.83642578125,0.10290166875700912
44.82421875,0.1035024437781138
44.81201171875,0.10408251298125003
44.7998046875,0.10464221303330726
44.78759765625,0.10518101088519835
44.775390625,0.10569916610454548
44.76318359375,0.10619618765598937
44.7509765625,0.10667236306489568
44.73876953125,0.10712739125889376
44.7265625,0.1075611756885035
44.71435546875,0.1079734654856972
44.7021484375,0.10836436657457242
44.68994140625,0.1087338985422439
44.677734375,0.10908170984887335
44.66552734375,0.109407999780727
44.6533203125,0.10971255574786562
44.64111328125,0.10999531103160304
44.62890625,0.11025610461713353
44.61669921875,0.11049508436010129
44.6044921875,0.11071208929918616
44.59228515625,0.11090707010003593
44.580078125,0.11107991793562363
44.56787109375,0.11123072870358483
44.5556640625,0.11135939364090178
44.54345703125,0.11146584333436758
44.53125,0.1115501344676142
44.51904296875,0.11161219769922567
44.5068359375,0.1116520145079799
44.49462890625,0.11166957080168716
44.482421875,0.11166486317381163
44.47021484375,0.11163788268581937
44.4580078125,0.11158862601568682
44.44580078125,0.11151712943133779
44.43359375,0.11142334458076697
44.42138671875,0.11130730782386915
44.4091796875,0.11116909507054046
44.39697265625,0.11100861861001529
44.384765625,0.1108259544514735
44.37255859375,0.1106211328637487
44.3603515625,0.11039428244099074
44.34814453125,0.11014517328860358
44.3359375,0.10987410631931066
44.32373046875,0.10958116713862695
44.3115234375,0.10926617680189499
44.29931640625,0.10892930331331722
44.287109375,0.10857060776300752
44.27490234375,0.10819030999725501
44.2626953125,0.10778803681373408
44.25048828125,0.10736428627647678
44.23828125,0.10691900157632116
44.22607421875,0.10645245387765807
44.2138671875,0.10596436194764304
44.20166015625,0.10545520223474612
44.189453125,0.10492448133333693
44.17724609375,0.10437286279642417
44.1650390625,0.10380027096586618
44.15283203125,0.10320705241193352
44.140625,0.10259238898237903
44.12841796875,0.10195779137661085
44.1162109375,0.10130243241170478
44.10400390625,0.10062668344979808
44.091796875,0.09993070799419473
44.07958984375,0.09921457123968123
44.0673828125,0.09847844382790348
44.05517578125,0.09772246695437066
44.04296875,0.09694682413478616
44.03076171875,0.0961515888291198
44.0185546875,0.09533695150307327
44.00634765625,0.09450311031528544
43.994140625,0.0936501447792466
43.98193359375,0.09277825984763097
43.9697265625,0.09188766797853629
43.95751953125,0.09097809224839423
43.9453125,0.0900508388024606
43.93310546875,0.089104670237388
43.9208984375,0.08814117029676118
43.90869140625,0.08715909913172967
43.896484375,0.08615970312982217
43.88427734375,0.0851428402591318
43.8720703125,0.08410834786818147
43.85986328125,0.08305756052281958
43.84765625,0.0819891267849628
43.83544921875,0.08090440486864611
43.8232421875,0.0798032941157675
43.81103515625,0.07868590204657906
43.798828125,0.07755250021237234
43.78662109375,0.0764033665354715
43.7744140625,0.0752386136133811
43.76220703125,0.07405811434490996
43.75,0.0728629158045819
43.73779296875,0.07165290605635581
43.7255859375,0.0704282041601358
43.71337890625,0.06918867797522238
43.701171875,0.06793542740779654
43.68896484375,0.06666833455150857
43.6767578125,0.06538752455746046
43.66455078125,0.06409286066158111
43.65234375,0.06278555621637157
43.64013671875,0.06146529552082047
43.6279296875,0.06013193862555711
43.61572265625,0.05878666949388237
43.603515625,0.05742882283257553
43.59130859375,0.05606014701852865
43.5791015625,0.054678884724816114
43.56689453125,0.05328686885733406
43.5546875,0.051883762630173
43.54248046875,0.05046941963817126
43.5302734375,0.049044602270687104
43.51806640625,0.04761008956286611
43.505859375,0.04616574465747317
43.49365234375,0.04471120756414412
43.4814453125,0.043248420278799785
43.46923828125,0.04177550559582803
43.45703125,0.040293834660748866
43.44482421875,0.038804217086249246
43.4326171875,0.037306510090013956
43.42041015625,0.03580034208337894
43.408203125,0.03428712508644945
43.39599609375,0.03276611253026065
43.3837890625,0.031238731624614678
43.37158203125,0.029704080056624897
43.359375,0.028163597022866756
43.34716796875,0.026617134115397293
43.3349609375,0.025063696129771693
43.32275390625,0.023506040494112188
43.310546875,0.02194317746448851
43.29833984375,0.020375569502335204
43.2861328125,0.0188022096490818
43.27392578125,0.017225891041833842
43.26171875,0.01564506400616302
43.24951171875,0.014061212089025889
43.2373046875,0.012474181773317848
43.22509765625,0.010883583680630263
43.212890625,0.009290359794260227
43.20068359375,0.007695456845824157
43.1884765625,0.0060979340875039435
43.17626953125,0.004498738442965948
43.1640625,0.002898741909297873
43.15185546875,0.0012977887003063496
43.1396484375,-3.0451214950366623E-4
43.12744140625,-0.0019072097684031655
43.115234375,-0.0035099844834731737
43.10302734375,-0.0051118846872190765
43.0908203125,-0.006713854499608869
43.07861328125,-0.008314311001493171
43.06640625,-0.009914827863599993
43.05419921875,-0.0115125622034462
43.0419921875,-0.013109086436449568
43.02978515625,-0.01470282267106242
43.017578125,-0.016294709647904856
43.00537109375,-0.017883799892482496
42.9931640625,-0.019469775533217472
42.98095703125,-0.021051695926619957
42.96875,-0.022630492471349174
42.95654296875,-0.02420522435687353
42.9443359375,-0.025775576212284882
42.93212890625,-0.02734061706109145
42.919921875,-0.028901267977527623
