Freq, Coherency
49.91455078125,0.004520051357147636
49.90234375,0.006941037594575542
49.89013671875,0.009352765212406165
49.8779296875,0.011750862499584194
49.86572265625,0.014134433534988552
49.853515625,0.01649790415397247
49.841312408447266,0.018837811072145137
49.8291015625,0.02115299417855586
49.81689453125,0.023437095514318322
49.8046875,0.025688510815241324
49.792484283447266,0.027905093276214495
49.780277252197266,0.03008297298351895
49.76806640625,0.03221793018230351
49.755859375,0.034307855160782996
49.74365234375,0.03634958667677395
49.7314453125,0.0383394376771087
49.71923828125,0.04027663892495169
49.70703125,0.04215589416964734
49.69482421875,0.04397651666981372
49.6826171875,0.045735152379371716
49.67041015625,0.04742863254235122
49.658203125,0.04905628910823881
49.64599609375,0.05061426868697153
49.6337890625,0.05210077275957985
49.62158203125,0.053513129485002524
49.609375,0.05485076908500542
49.59716796875,0.05611050741856621
49.5849609375,0.057290893278371335
49.57275390625,0.05839050546085572
49.560546875,0.0594068075806147
49.54833984375,0.06033943552598943
49.5361328125,0.06118651656165064
49.52392578125,0.06194734089308856
49.51171875,0.06261983598788182
49.49951171875,0.06320401479643913
49.4873046875,0.06369843985915509
49.47509765625,0.06410240807003698
49.462890625,0.0644157123148272
49.450687408447266,0.06463749055872048
49.4384765625,0.06476766210275148
49.42626953125,0.06480585652304566
49.4140625,0.0647520617992807
49.40185546875,0.06460631996867916
49.3896484375,0.06436885363960261
49.37744140625,0.06403991246757545
49.365234375,0.06361984620386198
49.35302734375,0.06310966576794999
49.3408203125,0.06250957243220844
49.32861328125,0.061820389728342626
49.31640625,0.06104375542449394
49.30419921875,0.060179733922488564
49.2919921875,0.05923026774410275
49.27978515625,0.05819619210488137
49.267578125,0.05707948987892295
49.255367279052734,0.05588125287245716
49.243167877197266,0.05460387677710504
49.23095703125,0.05324813391558718
49.218753814697266,0.05181713757885704
49.206546783447266,0.05031138256881645
49.1943359375,0.04873433788271847
49.182132720947266,0.04708766253826182
49.169925689697266,0.04537363884328354
49.15771484375,0.043594450474407194
49.145503997802734,0.04175338612722448
49.13330078125,0.03985252609343251
49.12109375,0.037894512736655526
49.10888671875,0.03588167927085227
49.0966796875,0.03381737142849394
49.08447265625,0.03170506206927135
49.072265625,0.029547506273986255
49.06005859375,0.027347168403597574
49.0478515625,0.025106867055953757
49.03564453125,0.022831245879505108
49.0234375,0.020522331543580016
49.01123046875,0.01818309150540674
48.9990234375,0.01581899109705279
48.98681640625,0.013430286529626152
48.974609375,0.01102190460251342
48.96240234375,0.008598852354476856
48.9501953125,0.006160429791861032
48.93798828125,0.0037145733897890293
48.92578125,0.0012624964403016989
48.913578033447266,-0.001191863023543899
48.9013671875,-0.0036466693533670548
48.889156341552734,-0.006095309158912274
48.876953125,-0.008535993592252187
48.86474609375,-0.010965925678909279
48.852542877197266,-0.013380144882220954
48.84033203125,-0.015775896377994935
48.828125,-0.01815066867062765
48.81591796875,-0.020499332368800288
48.8037109375,-0.022819804304590175
48.79150390625,-0.025109050144093106
48.779296875,-0.02736320485248798
48.76708984375,-0.029579057661352635
48.7548828125,-0.03175260074383963
48.742679595947266,-0.03388125490823638
48.73046875,-0.03596336863491406
48.71826171875,-0.03799509962548133
48.7060546875,-0.03997337049383858
48.69384765625,-0.04189535770329955
48.681640625,-0.043757117951701605
48.66943359375,-0.045558429294231755
48.6572265625,-0.047295478970681516
48.64501953125,-0.048965783346100654
48.6328125,-0.05056695296262031
48.62060546875,-0.052096105861081064
48.6083984375,-0.0535522607556991
48.59619140625,-0.054932364161218245
48.583984375,-0.05623465263070772
48.57177734375,-0.05745791860045309
48.5595703125,-0.05859987405343795
48.54736328125,-0.059658474427181425
48.53515625,-0.06063303189029466
48.52294921875,-0.06152170575981626
48.5107421875,-0.062323211958599856
48.49853515625,-0.06303612566635605
48.486328125,-0.06365997542043322
48.47412109375,-0.0641935530692504
48.4619140625,-0.06463592100746841
48.44970703125,-0.06498677748705971
48.4375,-0.06524535292654296
48.42529296875,-0.06541134336881337
48.4130859375,-0.06548454176598979
48.40087890625,-0.06546473662538245
48.388671875,-0.06535193246074256
48.37646484375,-0.06514636545953452
48.3642578125,-0.06484814152986867
48.35205078125,-0.06445761061705466
48.33984375,-0.0639755063129979
48.32763671875,-0.06340240087903296
48.3154296875,-0.06273936504527225
48.30322265625,-0.061986793547515996
48.291015625,-0.061146326510596274
48.27880859375,-0.06021847093342458
48.2666015625,-0.059204837499681306
48.25439453125,-0.05810684418650152
48.2421875,-0.056926029156177796
48.22998046875,-0.05566456306016371
48.2177734375,-0.05432321989004052
48.205570220947266,-0.05290481960239032
48.193359375,-0.051409604602702205
48.18115234375,-0.04984244333035762
48.1689453125,-0.0482034746625232
48.15673828125,-0.04649561363957255
48.144527435302734,-0.04472142182527285
48.13232421875,-0.042883681685454554
48.1201171875,-0.040983494183419095
48.10791015625,-0.0390250877994141
48.095703125,-0.037011551585409815
48.083499908447266,-0.03494478924986471
48.0712890625,-0.032826560373195146
48.059085845947266,-0.03066192068435234
48.046875,-0.02845325068680467
48.03466796875,-0.02620341157159871
48.0224609375,-0.02391577412385223
48.01025390625,-0.02159450211265448
47.998046875,-0.019240435495193543
47.98583984375,-0.016859040506048497
47.9736328125,-0.014453086769235013
47.96142578125,-0.012025354223229933
47.94921875,-0.009581512584611955
47.93701171875,-0.007122470626123789
47.9248046875,-0.004653657920475805
47.91259765625,-0.00217598459677432
47.900390625,3.0477432308460817E-4
47.88818359375,0.0027847571596278957
47.8759765625,0.005263042822010683
47.86376953125,0.007733845894887034
47.8515625,0.010194297508997401
47.83935546875,0.012641531875412795
47.8271484375,0.015069845568864208
47.81494140625,0.017478340163363457
47.802734375,0.019862303172465
47.79052734375,0.022219915809251135
47.7783203125,0.02454623228844917
47.76611328125,0.02683677379693267
47.75390625,0.029090695212407706
47.74169921875,0.031303574818621345
47.7294921875,0.03347286076370099
47.71728515625,0.035595700065541414
47.705078125,0.037667965547394426
47.69287109375,0.039686985981579846
47.6806640625,0.04165042897760613
47.66845703125,0.043555698554401875
47.65625,0.045398370402627314
47.64404296875,0.04717822156100932
47.6318359375,0.048891044671495514
47.619625091552734,0.05053472263537503
47.607421875,0.05210770981895211
47.59521484375,0.053606330970944006
47.5830078125,0.055029399137284905
47.57080078125,0.05637448687606766
47.55859375,0.05764051331827958
47.54638671875,0.05882431593452197
47.5341796875,0.05992502997283929
47.52197265625,0.06094077147294135
47.509765625,0.061870351944709266
47.497562408447266,0.06271224382848428
47.4853515625,0.06346571805773907
47.47314453125,0.0641287784850482
47.4609375,0.06470084258959226
47.44873046875,0.06518122982173409
47.4365234375,0.06556910359206329
47.42431640625,0.06586405878586571
47.412109375,0.06606544046161394
47.39990234375,0.06617304251022076
47.3876953125,0.06618663656046277
47.37548828125,0.0661062226591473
47.36328125,0.0659318250659666
47.35107421875,0.06566380026952626
47.3388671875,0.06530223758149886
47.326656341552734,0.06484785472223868
47.314453125,0.06430133731643146
47.30224609375,0.0636633106344591
47.2900390625,0.06293478800679846
47.27783203125,0.062116359071577504
47.265625,0.06120943368833864
47.253421783447266,0.06021586823531008
47.2412109375,0.05913601551045208
47.22900390625,0.057972222304151375
47.216796875,0.056724780339570374
47.20458984375,0.05539776368168761
47.1923828125,0.05399082419156032
47.18017578125,0.052506782982888724
47.16796875,0.05094835937945759
47.15576171875,0.049315858611978715
47.1435546875,0.047614607734547676
47.13134765625,0.04584414938645733
47.119140625,0.04400881033938339
47.10693359375,0.04210973162785882
47.094722747802734,0.04015047672415178
47.08251953125,0.03813330890182948
47.0703125,0.036061585358364956
47.05810546875,0.03393947262593988
47.0458984375,0.03176719586486677
47.03369140625,0.02955008636883897
47.021484375,0.02728953127442901
47.00927734375,0.024989599340946033
46.9970703125,0.022653548915980638
46.98486328125,0.02028469052838545
46.97265625,0.017887334808118403
46.96044921875,0.015462986894394076
46.9482421875,0.013016027082492583
46.93603515625,0.010549927053045687
46.923828125,0.008069169409672398
46.91162109375,0.005575315547100307
46.8994140625,0.0030738734520546693
46.88720703125,5.664194287994726E-4
46.875,-0.001942497365157374
46.862789154052734,-0.00444909937340944
46.8505859375,-0.006950460226613777
46.83837890625,-0.009441405058978962
46.826171875,-0.011920571786299166
46.81396484375,-0.014382478381145751
46.8017578125,-0.016825566935679756
46.78955078125,-0.019245383973968074
46.77734375,-0.02163848435081288
46.76513671875,-0.02400053311613614
46.7529296875,-0.026330031723610703
46.74072265625,-0.028622721261296773
46.728515625,-0.030874452359111078
46.71630859375,-0.033083793454457625
46.7041015625,-0.035247249445124
46.69189453125,-0.037360612992742265
46.6796875,-0.03942063082867198
46.66748046875,-0.04142598906957121
46.6552734375,-0.04337299860279991
46.64306640625,-0.045258144580729485
46.630859375,-0.04708068468906704
46.618656158447266,-0.04883645688428044
46.6064453125,-0.05052299119127608
46.59423828125,-0.052137686491388543
46.58203125,-0.053679359017986865
46.56982421875,-0.05514514609678161
46.5576171875,-0.05653329373639023
46.54541015625,-0.05784058914880093
46.533203125,-0.059066555853259824
46.52099609375,-0.06020889745316632
46.5087890625,-0.06126623099397055
46.49658203125,-0.06223611780730232
46.484375,-0.06311820777292186
46.47216796875,-0.06391101713197771
46.4599609375,-0.06461298488250776
46.44775390625,-0.0652230835366391
46.435546875,-0.06574090379451236
46.42333984375,-0.06616537470254318
46.4111328125,-0.06649609559903749
46.39892578125,-0.066732220777816
46.38671875,-0.0668736029529193
46.37451171875,-0.06691997754727198
46.3623046875,-0.06687122851666792
46.35009765625,-0.06672750069151424
46.337890625,-0.06648885926210915
46.32568359375,-0.06615555769737849
46.3134765625,-0.06572840445523052
46.30126953125,-0.06520742308200311
46.2890625,-0.06459374916094082
46.27685546875,-0.06388810734780931
46.2646484375,-0.0630915904329729
46.25244140625,-0.062205089771254225
46.240234375,-0.06122967946909866
46.22802734375,-0.06016766395600914
46.2158203125,-0.05901914071043058
46.20361328125,-0.05778671640369315
46.19140625,-0.05647148261835156
46.17919921875,-0.05507653449834273
46.1669921875,-0.05360200912365423
46.15478515625,-0.05205128006650141
46.142578125,-0.05042638480584572
46.13037109375,-0.048729171244051475
46.1181640625,-0.0469617815125315
46.10595703125,-0.04512762412245745
46.09375,-0.043229101310278926
46.08154296875,-0.041267862402048126
46.0693359375,-0.03924794751007831
46.05712890625,-0.03717116665568313
46.044921875,-0.03504153183472292
46.03271484375,-0.032861824221599056
46.0205078125,-0.030633953035504445
46.00830078125,-0.028362518484636463
45.99609375,-0.026050482746558155
45.98388671875,-0.02370049248506792
45.9716796875,-0.021316514991883573
45.95947265625,-0.01889969260390547
45.947265625,-0.016457901576096678
45.93505859375,-0.013990464265909757
45.9228515625,-0.011503457382908488
45.91064453125,-0.008998447517166254
45.8984375,-0.006480624127809449
45.88623046875,-0.003952259500874764
45.8740234375,-0.0014175967698278572
45.86181640625,0.001118102714073716
45.849609375,0.0036545513519291085
45.83740234375,0.006186483902056809
45.8251953125,0.008710298918962191
45.81298828125,0.011220767823852541
45.80078125,0.01371760200502013
45.78857421875,0.016195600496536653
45.7763671875,0.018650270121985727
45.76416015625,0.02108005317078349
45.751953125,0.023479896050205354
45.73974609375,0.02584669379613318
45.7275390625,0.028178315839500274
45.71533203125,0.030470495629943813
45.703125,0.032719963230899596
45.69091796875,0.034923508556460425
45.6787109375,0.037077145499859125
45.66650390625,0.03917896197451727
45.654296875,0.04122538671144682
45.64208984375,0.043214559852047606
45.629878997802734,0.04514340612722637
45.61767578125,0.047007402863203276
45.60546875,0.04880494950798929
45.59326171875,0.05053430368945856
45.5810546875,0.05219226461575922
45.56884765625,0.05377584497545328
45.556640625,0.055284023764270274
45.54443359375,0.056713995805868035
45.5322265625,0.05806370665147041
45.52001953125,0.05933121541733963
45.5078125,0.06051424718297869
45.49560546875,0.06161203135035796
45.483394622802734,0.06262241798908055
45.47119140625,0.06354419225416155
45.458984375,0.06437546361435087
45.44677734375,0.06511576403467935
45.4345703125,0.06576343257150868
45.42236328125,0.06631823515647049
45.41015625,0.06677848264190918
45.39794921875,0.06714397042823934
45.3857421875,0.06741432916961324
45.37353515625,0.06758875495987422
45.361328125,0.06766714671712822
45.34912109375,0.06764936273403138
45.3369140625,0.06753532418697426
45.32470703125,0.06732534698533442
45.3125,0.067019511791999
45.30029296875,0.06661829144666538
45.2880859375,0.06612230431325838
45.27587890625,0.06553209519550063
45.263671875,0.06484853867107476
45.25146484375,0.06407258133601262
45.2392578125,0.06320566164460305
45.22705078125,0.06224804335954182
45.21484375,0.06120231412964622
45.20263671875,0.060068874615765905
45.1904296875,0.05884970825600724
45.17822265625,0.05754617706593707
45.166015625,0.056160786593169795
45.15380859375,0.05469575179933297
45.1416015625,0.0531519770628439
45.12939453125,0.05153176992643524
45.1171875,0.049838252348302754
45.10498046875,0.04807411295896631
45.0927734375,0.04623996409265174
45.08056640625,0.04434002735604364
45.068359375,0.04237730742747468
45.05615234375,0.040352496005385714
45.0439453125,0.03827026666819305
45.03173828125,0.03613304789467063
45.01953125,0.0339441642316018
45.00732421875,0.031706119579718126
44.9951171875,0.02942177960776558
44.98291015625,0.027095562706690588
44.970703125,0.024730502959852473
44.95849609375,0.02232931044422118
44.9462890625,0.0198966747784497
44.93408203125,0.01743348396201112
44.921875,0.014945462306467518
44.90966796875,0.012434853958188911
44.8974609375,0.009906522685314775
44.88525390625,0.007363757316089075
44.873046875,0.004809479056827384
44.86083984375,0.0022469970637561637
44.8486328125,-3.1770730212811736E-4
44.83642578125,-0.00288434037452646
44.82421875,-0.0054469115584225
44.81201171875,-0.008002094498189534
44.7998046875,-0.01054760504092832
44.78759765625,-0.013078155308902108
44.775390625,-0.01559145176609787
44.76318359375,-0.018081635904490953
44.7509765625,-0.02054841561524571
44.73876953125,-0.02298663874447164
44.7265625,-0.02539221012016352
44.71435546875,-0.027762016330217233
44.7021484375,-0.030093321281803653
44.68994140625,-0.032383062210559914
44.677734375,-0.03462648481286617
44.66552734375,-0.03682159405361388
44.6533203125,-0.0389654956276231
44.64111328125,-0.041054550293065775
44.62890625,-0.04308446299751118
44.61669921875,-0.045054984457197134
44.6044921875,-0.04696194786475289
44.59228515625,-0.04880262270413465
44.580078125,-0.050573237225890785
44.56787109375,-0.052273568862084056
44.5556640625,-0.053899998200868035
44.54345703125,-0.055449594586623505
44.53125,-0.05692135566820116
44.51904296875,-0.058312189448369106
44.5068359375,-0.05962081524693742
44.49462890625,-0.06084497777765026
44.482421875,-0.06198248030250303
44.47021484375,-0.0630325786280358
44.4580078125,-0.06399305129646196
44.44580078125,-0.06486267934127721
44.43359375,-0.06564062654992998
44.42138671875,-0.06632539938333674
44.4091796875,-0.06691578346658701
44.39697265625,-0.06741137882950994
44.384765625,-0.06781120236212983
44.37255859375,-0.06811465868776673
44.3603515625,-0.06832122696485705
44.34814453125,-0.0684307495185976
44.3359375,-0.06844295234761877
44.32373046875,-0.06835785019076007
44.3115234375,-0.06817545414452078
44.29931640625,-0.06789601105858725
44.287109375,-0.06751989152181788
44.27490234375,-0.06704780899627819
44.2626953125,-0.06648003572160378
44.25048828125,-0.0658175202982959
44.23828125,-0.06506117891154353
44.22607421875,-0.06421241466199926
44.2138671875,-0.06327173926044945
44.20166015625,-0.06224092820493046
44.189453125,-0.061121143159863695
44.17724609375,-0.05991408623483328
44.1650390625,-0.058621450354915804
44.15283203125,-0.05724561001271822
44.140625,-0.05578682196083438
44.12841796875,-0.05424943830889508
44.1162109375,-0.052633851110246474
44.10400390625,-0.05094292839546206
44.091796875,-0.0491792988820164
44.07958984375,-0.04734497275422894
44.0673828125,-0.04544277436609673
44.05517578125,-0.043475390957159424
44.04296875,-0.04144641605415341
44.03076171875,-0.03935711723236902
44.0185546875,-0.03721067632842833
44.00634765625,-0.03501212017601498
43.994140625,-0.032762277841406125
43.98193359375,-0.030465193435916464
43.9697265625,-0.028124442126952007
43.95751953125,-0.025741759354206268
43.9453125,-0.023323678725625085
43.93310546875,-0.020870150202802265
43.9208984375,-0.01838785745299914
43.90869140625,-0.01587773328870645
43.896484375,-0.013344315273311962
43.88427734375,-0.010790537838242104
43.8720703125,-0.008221350511706874
43.85986328125,-0.005640765797190313
43.84765625,-0.0030497431744349428
43.83544921875,-4.543238620830786E-4
43.8232421875,0.0021421186697312845
43.81103515625,0.004736595295951892
43.798828125,0.007325062065388217
43.78662109375,0.009903485806813736
43.7744140625,0.012468895015871001
43.76220703125,0.015017942962445172
43.75,0.01754567897980865
43.73779296875,0.020048825530157955
43.7255859375,0.022524493663800552
43.71337890625,0.02496944069602905
43.701171875,0.027378913903186277
43.68896484375,0.029749793791012915
43.6767578125,0.032079339725178964
43.66455078125,0.03436448689067856
43.65234375,0.03659991641339282
43.64013671875,0.03878535498509133
43.6279296875,0.04091565569334376
43.61572265625,0.04298887380975645
43.603515625,0.04500097043619848
43.59130859375,0.04694935029070602
43.5791015625,0.04883223059442726
43.56689453125,0.050644969154710194
43.5546875,0.05238733586817168
43.54248046875,0.05405520059445688
43.5302734375,0.0556470318733706
43.51806640625,0.05716010073618098
43.505859375,0.058591322511385976
43.49365234375,0.05994050799848253
43.4814453125,0.06120426937822378
43.46923828125,0.062381487515142955
43.45703125,0.06347055615892014
43.44482421875,0.0644695839605221
43.4326171875,0.06537678364377263
43.42041015625,0.06619135499998817
43.408203125,0.0669121579067274
43.39599609375,0.06753791674211004
43.3837890625,0.06806752389381211
43.37158203125,0.06850051663758902
43.359375,0.0688362474238553
43.34716796875,0.0690740116017746
43.3349609375,0.06921366618430204
43.32275390625,0.06925476442626621
43.310546875,0.06919732672448366
43.29833984375,0.06904150515952084
43.2861328125,0.06878717021695091
43.27392578125,0.06843508432687717
43.26171875,0.06798536207420763
43.24951171875,0.06743873545747277
43.2373046875,0.06679622730732053
43.22509765625,0.06605821785079177
43.212890625,0.06522596502892528
43.20068359375,0.0643010097482541
43.1884765625,0.06328391227577418
43.17626953125,0.06217644084417168
43.1640625,0.060980146058351066
43.15185546875,0.059697571827233405
43.1396484375,0.05832847723227872
43.12744140625,0.05687669174785414
43.115234375,0.055342755774872604
43.10302734375,0.05373063979651554
43.0908203125,0.05204095744486957
43.07861328125,0.0502774225669164
43.06640625,0.04844039459958388
43.05419921875,0.04653536220013093
43.0419921875,0.044562803941624145
43.02978515625,0.042527061961803954
43.017578125,0.040429409485675576
43.00537109375,0.03827360556707052
42.9931640625,0.03606270213910619
42.98095703125,0.03380073267819264
42.96875,0.03148851301252023
42.95654296875,0.029131399301127257
