Freq, Coherency
49.91455078125,0.029294314230467595
49.90234375,0.03095910000629096
49.89013671875,0.03190692445639895
49.8779296875,0.032115712403568565
49.86572265625,0.031580607589097
49.853515625,0.030313179927005503
49.841312408447266,0.028343979200197895
49.8291015625,0.02571610357987011
49.81689453125,0.02249378636144985
49.8046875,0.018749864258729605
49.792484283447266,0.014568802682248244
49.780277252197266,0.01004945948533428
49.76806640625,0.005295304090871312
49.755859375,4.180701091115784E-4
49.74365234375,-0.004470059712543169
49.7314453125,-0.009253971609700894
49.71923828125,-0.013826553524417707
49.70703125,-0.018079326636172198
49.69482421875,-0.021914836867622932
49.6826171875,-0.025243496031018373
49.67041015625,-0.027987090581180332
49.658203125,-0.030084510933562517
49.64599609375,-0.031484721419795504
49.6337890625,-0.03215572705872439
49.62158203125,-0.03208186004123124
49.609375,-0.03126462664825273
49.59716796875,-0.029722737484206504
49.5849609375,-0.02749108417285905
49.57275390625,-0.02462234810012369
49.560546875,-0.021183816140476496
49.54833984375,-0.0172512536091545
49.5361328125,-0.012920694447656833
49.52392578125,-0.008284941240519606
49.51171875,-0.0034609105088247594
49.49951171875,0.0014463875114249028
49.4873046875,0.006322628652172308
49.47509765625,0.011050499422869262
49.462890625,0.015526495597038585
49.450687408447266,0.01964143999508816
49.4384765625,0.02330554751329692
49.42626953125,0.026427216941466585
49.4140625,0.02893920510835395
49.40185546875,0.030780525614548006
49.3896484375,0.031908965175500875
49.37744140625,0.03229850816466975
49.365234375,0.03193955097405774
49.35302734375,0.030840983992956237
49.3408203125,0.029026664123106262
49.32861328125,0.026538950622769283
49.31640625,0.02343755218220505
49.30419921875,0.01979018815569311
49.2919921875,0.01568420929471802
49.27978515625,0.011212590073774663
49.267578125,0.006479904477783541
49.255367279052734,0.0015974848928043725
49.243167877197266,-0.0033237357870794827
49.23095703125,-0.008169836720676529
49.218753814697266,-0.012825599406619434
49.206546783447266,-0.017187885543737846
49.1943359375,-0.02115247359032414
49.182132720947266,-0.024627029211932223
49.169925689697266,-0.027532004730139337
49.15771484375,-0.029800077973584287
49.145503997802734,-0.031377965852782005
49.13330078125,-0.03222881265502715
49.12109375,-0.03233314230909653
49.10888671875,-0.03168802479680635
49.0966796875,-0.03030810499484238
49.08447265625,-0.028225189668675904
49.072265625,-0.025488590800928804
49.06005859375,-0.022160358176761666
49.0478515625,-0.01831675277880022
49.03564453125,-0.014049286393684367
49.0234375,-0.009453430321134429
49.01123046875,-0.004637254079324309
48.9990234375,2.856959195460449E-4
48.98681640625,0.005205187843976027
48.974609375,0.01000524369356484
48.96240234375,0.014572811336852004
48.9501953125,0.01880712047679337
48.93798828125,0.022602432273964232
48.92578125,0.025877317580608024
48.913578033447266,0.028552372327420646
48.9013671875,0.03056759633623603
48.889156341552734,0.03187385548709511
48.876953125,0.03244157660315309
48.86474609375,0.03225747780971754
48.852542877197266,0.03132584264089542
48.84033203125,0.029667724764807245
48.828125,0.02732127519130511
48.81591796875,0.024342118879365944
48.8037109375,0.020796819921831907
48.79150390625,0.016768480897549863
48.779296875,0.012350370651755142
48.76708984375,0.0076448178374090145
48.7548828125,0.002762784728808975
48.742679595947266,-0.0021849016095520394
48.73046875,-0.007085544226929574
48.71826171875,-0.011822309636186789
48.7060546875,-0.016286191128580298
48.69384765625,-0.020373631257195473
48.681640625,-0.023988453586441017
48.66943359375,-0.027050284491440618
48.6572265625,-0.029484910269149817
48.64501953125,-0.031236588119140644
48.6328125,-0.032264534884394326
48.62060546875,-0.03254474901644668
48.6083984375,-0.03207062144899917
48.59619140625,-0.030852862400483506
48.583984375,-0.02892041197869878
48.57177734375,-0.02631562116874147
48.5595703125,-0.023100662937308575
48.54736328125,-0.0193509043049072
48.53515625,-0.015149066451900556
48.52294921875,-0.010595974712630338
48.5107421875,-0.0057960730908316075
48.49853515625,-8.612600824421758E-4
48.486328125,0.004095447166064943
48.47412109375,0.008959693063688757
48.4619140625,0.013614416624397302
48.44970703125,0.01795657640118574
48.4375,0.02188448942433332
48.42529296875,0.025303741479943704
48.4130859375,0.028139331785176455
48.40087890625,0.030322469330504837
48.388671875,0.031803466268871344
48.37646484375,0.03254690635245411
48.3642578125,0.03253632244773896
48.35205078125,0.03177133322309181
48.33984375,0.030269098975003232
48.32763671875,0.02806502715488164
48.3154296875,0.025210179500810427
48.30322265625,0.021768841304150906
48.291015625,0.01782439665621838
48.27880859375,0.013463088522582642
48.2666015625,0.008789612378781515
48.25439453125,0.003909900046500018
48.2421875,-0.0010617518969050826
48.22998046875,-0.006006864039526905
48.2177734375,-0.010817146452436872
48.205570220947266,-0.015376390771593883
48.193359375,-0.019581806066047504
48.18115234375,-0.023332480072250337
48.1689453125,-0.02654448009277601
48.15673828125,-0.029141010451270224
48.144527435302734,-0.03106288213948998
48.13232421875,-0.032264663443323634
48.1201171875,-0.03271884438471524
48.10791015625,-0.03241421335780123
48.095703125,-0.031358568361419314
48.083499908447266,-0.029575492441307395
48.0712890625,-0.027104636755577217
48.059085845947266,-0.024006151330722023
48.046875,-0.020349502332904414
48.03466796875,-0.016220722558294046
48.0224609375,-0.011713633275151791
48.01025390625,-0.006935603852975002
47.998046875,-0.0019936363138292395
47.98583984375,0.0029958450169870463
47.9736328125,0.007917119362783078
47.96142578125,0.01265601827375292
47.94921875,0.017100895056382372
47.93701171875,0.02115206803504772
47.9248046875,0.024712357300860962
47.91259765625,0.027701853323394154
47.900390625,0.03004956186734244
47.88818359375,0.031700354147356474
47.8759765625,0.0326170577120932
47.86376953125,0.03277742961630591
47.8515625,0.032177555006396116
47.83935546875,0.030831152193613112
47.8271484375,0.02877020572930001
47.81494140625,0.026040715475368268
47.802734375,0.022707915934299275
47.79052734375,0.018844724187306424
47.7783203125,0.014544844813953177
47.76611328125,0.009908358921577197
47.75390625,0.005039079602926602
47.74169921875,5.23462676842457E-5
47.7294921875,-0.004937570163080275
47.71728515625,-0.009814247396891056
47.705078125,-0.01446453961807634
47.69287109375,-0.01877890307893839
47.6806640625,-0.02266056929203803
47.66845703125,-0.026018403384550654
47.65625,-0.02877170931499127
47.64404296875,-0.03085956237398798
47.6318359375,-0.03223215375702101
47.619625091552734,-0.03285750247669914
47.607421875,-0.0327206514802134
47.59521484375,-0.03182527276066744
47.5830078125,-0.030190744696355708
47.57080078125,-0.027856879564550376
47.55859375,-0.024874178402157162
47.54638671875,-0.02131531027897801
47.5341796875,-0.017260648249902494
47.52197265625,-0.012806384119013433
47.509765625,-0.008050983805810772
47.497562408447266,-0.0031103319161012166
47.4853515625,0.0019080890405479185
47.47314453125,0.006880728388341372
47.4609375,0.011694413184753815
47.44873046875,0.016238766968669726
47.4365234375,0.020406082379748277
47.42431640625,0.024103753933626522
47.412109375,0.027242277182306967
47.39990234375,0.029750275530780843
47.3876953125,0.03156755420867892
47.37548828125,0.03265411786464127
47.36328125,0.03298314854594632
47.35107421875,0.03254734369505025
47.3388671875,0.03135543776835824
47.326656341552734,0.029436638586752772
47.314453125,0.026834564213316037
47.30224609375,0.0236092498394561
47.2900390625,0.01983601766679559
47.27783203125,0.01560007557843065
47.265625,0.011002206458751607
47.253421783447266,0.006148196587033986
47.2412109375,0.0011491931050618455
47.22900390625,-0.0038749542268516155
47.216796875,-0.00881566872087827
47.20458984375,-0.013549308611055263
47.1923828125,-0.0179716538155706
47.18017578125,-0.021977115915739018
47.16796875,-0.025473413857522567
47.15576171875,-0.028381956816814755
47.1435546875,-0.03063057656636886
47.13134765625,-0.032169648506786684
47.119140625,-0.03296287520099433
47.10693359375,-0.03299178861630204
47.094722747802734,-0.03225515068889848
47.08251953125,-0.030769575765735555
47.0703125,-0.028569624127990162
47.05810546875,-0.025707318275561948
47.0458984375,-0.022247618059685476
47.03369140625,-0.01827154266896777
47.021484375,-0.01386891941884116
47.00927734375,-0.009143278868584043
46.9970703125,-0.004204205659272457
46.98486328125,8.33733604279323E-4
46.97265625,0.005851691466940004
46.96044921875,0.010737152646086845
46.9482421875,0.015374716839378043
46.93603515625,0.01965669340954718
46.923828125,0.023482211355906668
46.91162109375,0.026765376803925208
46.8994140625,0.029427334403386
46.88720703125,0.031408235600966096
46.875,0.03266075495361478
46.862789154052734,0.033155623672634756
46.8505859375,0.03288101670105131
46.83837890625,0.031843772619400905
46.826171875,0.030066984728739043
46.81396484375,0.027593055933888305
46.8017578125,0.02447727166849308
46.78955078125,0.020792611562652212
46.77734375,0.016624436673458424
46.76513671875,0.012069998738594679
46.7529296875,0.007233643847893766
46.74072265625,0.002228137705305955
46.728515625,-0.0028284145487446496
46.71630859375,-0.007823911961035776
46.7041015625,-0.012637863822691251
46.69189453125,-0.01715979616212743
46.6796875,-0.021283157789433224
46.66748046875,-0.024916251052362722
46.6552734375,-0.027971066001733352
46.64306640625,-0.03037674178657169
46.630859375,-0.03207950976352586
46.618656158447266,-0.033037766302244746
46.6064453125,-0.03322940923607485
46.59423828125,-0.03265021356938148
46.58203125,-0.03131306072243782
46.56982421875,-0.02924823993077525
46.5576171875,-0.02650453307505481
46.54541015625,-0.02314549675118868
46.533203125,-0.019248001556770256
46.52099609375,-0.014901613617929067
46.5087890625,-0.01020930433177361
46.49658203125,-0.0052795055844340275
46.484375,-2.2521094372097235E-4
46.47216796875,0.004836940047165858
46.4599609375,0.009786881986353047
46.44775390625,0.01451038328718724
46.435546875,0.018899058171985412
46.42333984375,0.022849793532105745
46.4111328125,0.026273100688950345
46.39892578125,0.029085789894887866
46.38671875,0.031225107719399764
46.37451171875,0.03263970352572284
46.3623046875,0.03329726201288615
46.35009765625,0.03318205407606878
46.337890625,0.03229678250239147
46.32568359375,0.030661237514634055
46.3134765625,0.02831438077489015
46.30126953125,0.02530867136056031
46.2890625,0.02171549942665324
46.27685546875,0.017616301259825558
46.2646484375,0.013108811497694136
46.25244140625,0.00829404096903686
46.240234375,0.0032867006253667797
46.22802734375,-0.0017975550471410664
46.2158203125,-0.006843424534996954
46.20361328125,-0.01173174288459185
46.19140625,-0.016348964941286494
46.17919921875,-0.02058623030450857
46.1669921875,-0.024348379629803265
46.15478515625,-0.027545442613087643
46.142578125,-0.03010379714718368
46.13037109375,-0.031964983783924726
46.1181640625,-0.03308446361999684
46.10595703125,-0.03343604456358701
46.09375,-0.033011676429625034
46.08154296875,-0.03182067152813373
46.0693359375,-0.029890493007341343
46.05712890625,-0.027265760018378837
46.044921875,-0.02400723065924482
46.03271484375,-0.02019199520698324
46.0205078125,-0.015905494506751154
46.00830078125,-0.011248528500169167
45.99609375,-0.006331100521575422
45.98388671875,-0.0012634572258860995
45.9716796875,0.0038341879186128136
45.95947265625,0.008846813497289314
45.947265625,0.013651537668355166
45.93505859375,0.01814251239859403
45.9228515625,0.022211932057582907
45.91064453125,0.025768390679628727
45.8984375,0.028728156459072757
45.88623046875,0.031020832264876175
45.8740234375,0.032593842148712214
45.86181640625,0.03341029884824956
45.849609375,0.033451593173664446
45.83740234375,0.03271606445850597
45.8251953125,0.031220692189558707
45.81298828125,0.029001002721004403
45.80078125,0.02610577474344999
45.78857421875,0.02260426482200088
45.7763671875,0.018578629444768024
45.76416015625,0.014117848799254117
45.751953125,0.009329148305637042
45.73974609375,0.0043232345070492615
45.7275390625,-7.850882986796092E-4
45.71533203125,-0.005876561780958557
45.703125,-0.010834203272590161
45.69091796875,-0.01554032949610795
45.6787109375,-0.0198863250308526
45.66650390625,-0.023772371610596692
45.654296875,-0.027107074479085138
45.64208984375,-0.029813768151010132
45.629878997802734,-0.031829871441222894
45.61767578125,-0.03310583557826812
45.60546875,-0.03361394329595527
45.59326171875,-0.03334181748751183
45.5810546875,-0.03229507698240872
45.56884765625,-0.03049864759506067
45.556640625,-0.0279933765323347
45.54443359375,-0.024836552248528727
45.5322265625,-0.02110291095561568
45.52001953125,-0.01687712389941023
45.5078125,-0.012259992749374117
45.49560546875,-0.007356330347034613
45.483394622802734,-0.002279647445160881
45.47119140625,0.0028522283368062995
45.458984375,0.007916841894653396
45.44677734375,0.012799709569190607
45.4345703125,0.01738609971649184
45.42236328125,0.02157325942233154
45.41015625,0.025257313949974866
45.39794921875,0.02835607222377057
45.3857421875,0.03079855342286725
45.37353515625,0.03252529682368593
45.361328125,0.03349773042838179
45.34912109375,0.0336923126033971
45.3369140625,0.033104080033320486
45.32470703125,0.03174739697046701
45.3125,0.029652428521155585
45.30029296875,0.026868821903664915
45.2880859375,0.023461085534311785
45.27587890625,0.01950616668027268
45.263671875,0.015097015798097316
45.25146484375,0.010335938657836804
45.2392578125,0.005335443459255947
45.22705078125,2.0770630504043334E-4
45.21484375,-0.004924253421262783
45.20263671875,-0.009945244494336937
45.1904296875,-0.014737755447367128
45.17822265625,-0.019187938883636325
45.166015625,-0.023193579631897897
45.15380859375,-0.026660253746376365
45.1416015625,-0.029510000461914897
45.12939453125,-0.03167497283824575
45.1171875,-0.0331046885212527
45.10498046875,-0.03376562596534303
45.0927734375,-0.03364260706696647
45.08056640625,-0.03273792502348912
45.068359375,-0.03107325131230575
45.05615234375,-0.028685743066091646
45.0439453125,-0.02563117389597425
45.03173828125,-0.021979317876755496
45.01953125,-0.017818438835343946
45.00732421875,-0.013240930665919288
44.9951171875,-0.008353280847820107
44.98291015625,-0.003271448001736416
44.970703125,0.0018857533552186596
44.95849609375,0.007003879178535732
44.9462890625,0.011957480809724018
44.93408203125,0.01663664481133412
44.921875,0.020931646687194196
44.90966796875,0.02474040773473118
44.8974609375,0.027976213807103207
44.88525390625,0.03056120136650709
44.873046875,0.03243845938825145
44.86083984375,0.03356207381455399
44.8486328125,0.03390631470043877
44.83642578125,0.033463064363404946
44.82421875,0.03224189190017069
44.81201171875,0.030272492488375116
44.7998046875,0.02759788158152913
44.78759765625,0.024281995687526915
44.775390625,0.02040003423002025
44.76318359375,0.016044632334145607
44.7509765625,0.011314723919654853
44.73876953125,0.006319350883162562
44.7265625,0.0011770413723157004
44.71435546875,-0.003993328364080382
44.7021484375,-0.00907434524176237
44.68994140625,-0.013945850735334013
44.677734375,-0.018491734265293814
44.66552734375,-0.02261213852702021
44.6533203125,-0.026208105462689854
44.64111328125,-0.029195908508892726
44.62890625,-0.031504666755353856
44.61669921875,-0.03308352246526754
44.6044921875,-0.033893849640348965
44.59228515625,-0.03391660079512664
44.580078125,-0.03315148274328576
44.56787109375,-0.031615949514426755
44.5556640625,-0.029344839535182788
44.54345703125,-0.026392318363446448
44.53125,-0.02282450567080737
44.51904296875,-0.01872518843107726
44.5068359375,-0.014189499917328645
44.49462890625,-0.00932274240911881
44.482421875,-0.004239967892907365
44.47021484375,9.447328557394888E-4
44.4580078125,0.006108916380068437
44.44580078125,0.01113061447657544
44.43359375,0.015897008349218356
44.42138671875,0.020295231300174847
44.4091796875,0.02422151400330442
44.39697265625,0.027587547143549673
44.384765625,0.0303132950795476
44.37255859375,0.03233564771554763
44.3603515625,0.03360602272541849
44.34814453125,0.03409629019536515
44.3359375,0.033794187741474725
44.32373046875,0.03270709516799623
44.3115234375,0.03085920794167289
44.29931640625,0.02829279462429422
44.287109375,0.025068617382916346
44.27490234375,0.021262464778006807
44.2626953125,0.016959654524276935
44.25048828125,0.012260201621214993
44.23828125,0.007275626269777235
44.22607421875,0.00212259227808551
44.2138671875,-0.0030845471362292167
44.20166015625,-0.008218128047385777
44.189453125,-0.013164169307206219
44.17724609375,-0.017806756743174685
44.1650390625,-0.022035525174863343
44.15283203125,-0.025752831342658496
44.140625,-0.0288742448101774
44.12841796875,-0.03132323082787932
44.1162109375,-0.03304629352112881
44.10400390625,-0.03400120093337563
44.091796875,-0.034166110912358466
44.07958984375,-0.0335370140165865
44.0673828125,-0.032127774708532654
44.05517578125,-0.02997100556575218
44.04296875,-0.02711871672003429
44.03076171875,-0.02363334667479257
44.0185546875,-0.01959849752004704
44.00634765625,-0.015107624302263185
43.994140625,-0.010262477865206865
43.98193359375,-0.00517863654886779
43.9697265625,2.6286808902296937E-5
43.95751953125,0.005236122234517213
43.9453125,0.010320367762725805
43.93310546875,0.015169396196899495
43.9208984375,0.019665340393038546
43.90869140625,0.023706106598146315
43.896484375,0.027197820366503006
43.88427734375,0.030058029816666408
43.8720703125,0.03222004275010322
43.85986328125,0.03363298147947178
43.84765625,0.034264885207268295
43.83544921875,0.03410027776055279
43.8232421875,0.033143207761124886
43.81103515625,0.03141489751879813
43.798828125,0.028955542446704518
43.78662109375,0.025823482431318923
43.7744140625,0.02208890692178526
43.76220703125,0.01783959616911292
43.75,0.01317422257891233
43.73779296875,0.008203160541951589
43.7255859375,0.0030380266954099073
43.71337890625,-0.0021992178957448644
43.701171875,-0.0073868013136259725
43.68896484375,-0.012402150489456512
43.6767578125,-0.017132518378669824
43.66455078125,-0.021465807105458607
43.65234375,-0.0252997370058807
43.64013671875,-0.028548015576456608
43.6279296875,-0.031133898500520618
43.61572265625,-0.03299574231524483
43.603515625,-0.034090794037104424
43.59130859375,-0.034393408980942904
43.5791015625,-0.033896562376779134
43.56689453125,-0.03261153445766951
43.5546875,-0.030567633883115317
43.54248046875,-0.027812298564017523
43.5302734375,-0.02440940188616392
43.51806640625,-0.02043681283143061
43.505859375,-0.015990608522559187
43.49365234375,-0.011169616214151497
43.4814453125,-0.006088209567446559
43.46923828125,-8.630950783686577E-4
43.45703125,0.0043835776826770916
43.44482421875,0.009531097065281094
43.4326171875,0.014455223632328056
43.42041015625,0.019047703248734744
43.408203125,0.023197311257459656
43.39599609375,0.02680949290180701
43.3837890625,0.0297972065239163
43.37158203125,0.03209462944849124
43.359375,0.03364566321317897
43.34716796875,0.03441465405620449
43.3349609375,0.03438353605434538
43.32275390625,0.033552837164669475
43.310546875,0.031941565730696425
43.29833984375,0.029587398788808728
43.2861328125,0.026542044705438486
43.27392578125,0.022881887524937992
43.26171875,0.018686106633610533
43.24951171875,0.014054355387718515
43.2373046875,0.009097573920191419
43.22509765625,0.003924577539832091
43.212890625,-0.0013412129828232575
43.20068359375,-0.0065752715827376304
43.1884765625,-0.011658640924609281
43.17626953125,-0.016473530508329764
43.1640625,-0.020906509710884754
43.15185546875,-0.02485288496391402
43.1396484375,-0.028223790700487743
43.12744140625,-0.030938979191525027
43.115234375,-0.0329350881376837
43.10302734375,-0.034164925307714575
43.0908203125,-0.03460124928256524
43.07861328125,-0.03423293182156286
43.06640625,-0.03306741192426189
43.05419921875,-0.03113338358886109
43.0419921875,-0.028473806425837973
