Freq, Coherency
49.91455078125,-0.03634576782026726
49.90234375,-0.038226103968370596
49.89013671875,-0.039852904106819534
49.8779296875,-0.041214811290235936
49.86572265625,-0.04230378774205354
49.853515625,-0.043111938728820354
49.841312408447266,-0.043633527117493215
49.8291015625,-0.04386586744300011
49.81689453125,-0.04380675549692716
49.8046875,-0.04345677843534176
49.792484283447266,-0.04281781263919191
49.780277252197266,-0.04189422180343552
49.76806640625,-0.04069214415231868
49.755859375,-0.03922006333787844
49.74365234375,-0.03748637373611366
49.7314453125,-0.035504003662979
49.71923828125,-0.033284496418319466
49.70703125,-0.030844283579927283
49.69482421875,-0.028197595533818388
49.6826171875,-0.025362889868748885
49.67041015625,-0.02236017391715598
49.658203125,-0.019208527105363464
49.64599609375,-0.015926989532885866
49.6337890625,-0.012538810448830151
49.62158203125,-0.00906786280910502
49.609375,-0.005534444977168736
49.59716796875,-0.0019633774813299235
49.5849609375,0.0016216207200983404
49.57275390625,0.005196732229505391
49.560546875,0.008736809196669972
49.54833984375,0.012221119376731584
49.5361328125,0.01562376178998182
49.52392578125,0.018926078819395648
49.51171875,0.022100902844102675
49.49951171875,0.02513094393273148
49.4873046875,0.027993421603718916
49.47509765625,0.030670997371522808
49.462890625,0.033146536983316675
49.450687408447266,0.03540177956031666
49.4384765625,0.03742367512356621
49.42626953125,0.03919609065155907
49.4140625,0.040709253304230385
49.40185546875,0.04195229326363074
49.3896484375,0.0429165584715446
49.37744140625,0.04359633477253556
49.365234375,0.043986597572438904
49.35302734375,0.04408470078857253
49.3408203125,0.0438899973984436
49.32861328125,0.04340361153126962
49.31640625,0.04262906509576732
49.30419921875,0.0415708205139109
49.2919921875,0.04023573610789269
49.27978515625,0.03863325317958831
49.267578125,0.036773665894720836
49.255367279052734,0.03466945486236688
49.243167877197266,0.03233473563750544
49.23095703125,0.029784304007539092
49.218753814697266,0.02703600419450189
49.206546783447266,0.024106549359893842
49.1943359375,0.021016451546382986
49.182132720947266,0.01778670163186155
49.169925689697266,0.01443697558462172
49.15771484375,0.01099077940977897
49.145503997802734,0.0074707042066251925
49.13330078125,0.0039000670768993225
49.12109375,3.023705125199803E-4
49.10888671875,-0.0032982352380080864
49.0966796875,-0.006877826323069583
49.08447265625,-0.010412612537388753
49.072265625,-0.01387774170561539
49.06005859375,-0.017252911376445135
49.0478515625,-0.0205150525959987
49.03564453125,-0.023639693489248673
49.0234375,-0.02660930379198796
49.01123046875,-0.029402848649199752
48.9990234375,-0.032000735416221365
48.98681640625,-0.03438825198193011
48.974609375,-0.03654727112785879
48.96240234375,-0.038463279669412584
48.9501953125,-0.040125605104920484
48.93798828125,-0.041520822417229666
48.92578125,-0.0426407365422307
48.913578033447266,-0.043477383336116324
48.9013671875,-0.04402577683616125
48.889156341552734,-0.044281573157110156
48.876953125,-0.044243192901964816
48.86474609375,-0.043910855595957025
48.852542877197266,-0.043286716291725945
48.84033203125,-0.042374849690276065
48.828125,-0.04118112170017446
48.81591796875,-0.0397137078784378
48.8037109375,-0.03798183281610656
48.79150390625,-0.03599714505131469
48.779296875,-0.03377220795276697
48.76708984375,-0.031322810087058145
48.7548828125,-0.028665755000533612
48.742679595947266,-0.02581675330729738
48.73046875,-0.022795557132743186
48.71826171875,-0.019621103979637355
48.7060546875,-0.016316217387397036
48.69384765625,-0.012902081072263922
48.681640625,-0.009401903719593046
48.66943359375,-0.005837831117990383
48.6572265625,-0.0022332019721798204
48.64501953125,0.0013863167807886272
48.6328125,0.004997538334903755
48.62060546875,0.008575911911286878
48.6083984375,0.012098766440419887
48.59619140625,0.015542932832768655
48.583984375,0.01888255967610514
48.57177734375,0.022099659369251713
48.5595703125,0.025169941622162413
48.54736328125,0.028073316764519986
48.53515625,0.030791354698006798
48.52294921875,0.03330605891981018
48.5107421875,0.035599464708380366
48.49853515625,0.037656603506643405
48.486328125,0.039464387030118564
48.47412109375,0.041010739001060385
48.4619140625,0.04228440117175319
48.44970703125,0.04327764019137535
48.4375,0.04398369968355461
48.42529296875,0.04439737183546534
48.4130859375,0.04451635763285999
48.40087890625,0.04433943533937943
48.388671875,0.04386785401825924
48.37646484375,0.043104806655580225
48.3642578125,0.0420550518181166
48.35205078125,0.04072523680109478
48.33984375,0.03912434817231352
48.32763671875,0.037263435412266274
48.3154296875,0.03515479298787193
48.30322265625,0.032811124422452244
48.291015625,0.03025042780002961
48.27880859375,0.027486419905017066
48.2666015625,0.02453898241753697
48.25439453125,0.02142842571850249
48.2421875,0.01817389695257727
48.22998046875,0.01479907657587308
48.2177734375,0.011323701997188759
48.205570220947266,0.007774132424847494
48.193359375,0.004168917622490997
48.18115234375,5.376186638121781E-4
48.1689453125,-0.0030987428744384984
48.15673828125,-0.006716304189404793
48.144527435302734,-0.010289839400041759
48.13232421875,-0.013795111708190767
48.1201171875,-0.017210671472246624
48.10791015625,-0.020511914218361987
48.095703125,-0.02367722405641371
48.083499908447266,-0.026686312089016447
48.0712890625,-0.029520572235247428
48.059085845947266,-0.032157614100175994
48.046875,-0.034581651285376304
48.03466796875,-0.036777236688923104
48.0224609375,-0.038728894015065275
48.01025390625,-0.04042296926511606
47.998046875,-0.04184947338224179
47.98583984375,-0.04299813331649269
47.9736328125,-0.043861241837857924
47.96142578125,-0.04443298801103337
47.94921875,-0.04470941496256426
47.93701171875,-0.04468896030280044
47.9248046875,-0.04437159822684061
47.91259765625,-0.0437591115571195
47.900390625,-0.042855563107778244
47.88818359375,-0.04166740982131985
47.8759765625,-0.04020153833017111
47.86376953125,-0.038468036040874724
47.8515625,-0.03647835819658438
47.83935546875,-0.03424566596937624
47.8271484375,-0.03178575476596472
47.81494140625,-0.029112975286322493
47.802734375,-0.026247138176452568
47.79052734375,-0.02320374658944213
47.7783203125,-0.020006485730455166
47.76611328125,-0.01667674147548456
47.75390625,-0.013233983955755734
47.74169921875,-0.00970377226324517
47.7294921875,-0.006106762367469569
47.71728515625,-0.002468229021178906
47.705078125,0.0011876502262031395
47.69287109375,0.004836010217591081
47.6806640625,0.008453730699044914
47.66845703125,0.012016184693382418
47.65625,0.01549831773128406
47.64404296875,0.018879712199768847
47.6318359375,0.022136469358152756
47.619625091552734,0.025246649815513045
47.607421875,0.028190309067807024
47.59521484375,0.030946016068885626
47.5830078125,0.03349842268508191
47.57080078125,0.03582728448987625
47.55859375,0.037920316583171534
47.54638671875,0.039760249702941806
47.5341796875,0.04133711562087457
47.52197265625,0.042639404716778434
47.509765625,0.0436587938119139
47.497562408447266,0.044388027847011444
47.4853515625,0.044822725206821505
47.47314453125,0.04495937852826694
47.4609375,0.044797231512787236
47.44873046875,0.04433723424275648
47.4365234375,0.043582725403211765
47.42431640625,0.04253776389469491
47.412109375,0.041209961618276704
47.39990234375,0.0396078564340218
47.3876953125,0.037742815393863295
47.37548828125,0.035625158938039435
47.36328125,0.033270598956498025
47.35107421875,0.03069530854394889
47.3388671875,0.027912489519526375
47.326656341552734,0.02494535019110321
47.314453125,0.021812358675936765
47.30224609375,0.018531798039641244
47.2900390625,0.015129323120714038
47.27783203125,0.011624063606717366
47.265625,0.008039751516571755
47.253421783447266,0.004403044609620244
47.2412109375,7.344300745789986E-4
47.22900390625,-0.0029380062693870044
47.216796875,-0.006594756816618086
47.20458984375,-0.010206611085788823
47.1923828125,-0.013752120007443927
47.18017578125,-0.017207945002316972
47.16796875,-0.020548140002152347
47.15576171875,-0.023755935313550584
47.1435546875,-0.026803389451769022
47.13134765625,-0.029675354791035235
47.119140625,-0.03234906577025348
47.10693359375,-0.0348100811132542
47.094722747802734,-0.03703953099954759
47.08251953125,-0.03902412977248657
47.0703125,-0.04074913498241387
47.05810546875,-0.04220349070258959
47.0458984375,-0.04337791039236584
47.03369140625,-0.044264150717258324
47.021484375,-0.044856520500855285
47.00927734375,-0.04515087899505965
46.9970703125,-0.04514501313619266
46.98486328125,-0.044838992506429955
46.97265625,-0.04423492453105804
46.96044921875,-0.0433365590224331
46.9482421875,-0.04214954384362647
46.93603515625,-0.040681878380774826
46.923828125,-0.03894443712476796
46.91162109375,-0.03694650011109659
46.8994140625,-0.03470323885322115
46.88720703125,-0.03222835606790116
46.875,-0.02953790541589746
46.862789154052734,-0.026650542903606116
46.8505859375,-0.02358541828897204
46.83837890625,-0.020363461296378105
46.826171875,-0.01700397589603094
46.81396484375,-0.013532748466634948
46.8017578125,-0.009968431476895264
46.78955078125,-0.006336877139811712
46.77734375,-0.0026622212466388294
46.76513671875,0.001028763586766227
46.7529296875,0.004716217100950686
46.74072265625,0.00837327274977169
46.728515625,0.011974190625116003
46.71630859375,0.015497018287275536
46.7041015625,0.01891855594775453
46.69189453125,0.022215165997792188
46.6796875,0.025363677538472244
46.66748046875,0.0283455978556978
46.6552734375,0.031139775489606853
46.64306640625,0.03372600431679898
46.630859375,0.036090310627528016
46.618656158447266,0.0382153708746677
46.6064453125,0.04008648061766118
46.59423828125,0.04169105572709348
46.58203125,0.04301945170163905
46.56982421875,0.044062072968659764
46.5576171875,0.04481190958907071
46.54541015625,0.04526370549869661
46.533203125,0.04541495043139138
46.52099609375,0.04526417721993109
46.5087890625,0.04481230882066203
46.49658203125,0.04406262550658819
46.484375,0.043019442499399894
46.47216796875,0.04168985801413826
46.4599609375,0.04008263933315335
46.44775390625,0.03820919395480964
46.435546875,0.03608043188924669
46.42333984375,0.03371211357459922
46.4111328125,0.031116989840549295
46.39892578125,0.028316343588157752
46.38671875,0.025325553810646145
46.37451171875,0.022165528863001042
46.3623046875,0.01885724120827906
46.35009765625,0.01542403338852003
46.337890625,0.011885994753294682
46.32568359375,0.008267088392342059
46.3134765625,0.0045945529241127984
46.30126953125,8.890414534076981E-4
46.2890625,-0.0028233674463965367
46.27685546875,-0.006517984352623304
46.2646484375,-0.01016880076750381
46.25244140625,-0.013754407083080546
46.240234375,-0.017249485276643696
46.22802734375,-0.020630249713694437
46.2158203125,-0.02387523564186938
46.20361328125,-0.026962289123938856
46.19140625,-0.029870836105977676
46.17919921875,-0.03258045524938939
46.1669921875,-0.0350757821960659
46.15478515625,-0.03733785809721229
46.142578125,-0.039351454961231255
46.13037109375,-0.04110470455121154
46.1181640625,-0.042585030942839636
46.10595703125,-0.04378276786465667
46.09375,-0.04468900085260722
46.08154296875,-0.045298661575279536
46.0693359375,-0.045607237572723364
46.05712890625,-0.045612448448609386
46.044921875,-0.045314288610626995
46.03271484375,-0.0447149559591981
46.0205078125,-0.043817632841477945
46.00830078125,-0.04262881463972843
45.99609375,-0.0411567872541053
45.98388671875,-0.039409652628954954
45.9716796875,-0.03740116340518711
45.95947265625,-0.03514112710512758
45.947265625,-0.03264914360674522
45.93505859375,-0.029938401266843603
45.9228515625,-0.027028277330289993
45.91064453125,-0.023937168970200477
45.8984375,-0.020685228403620613
45.88623046875,-0.017295597475830458
45.8740234375,-0.01379002342424779
45.86181640625,-0.010192356197199251
45.849609375,-0.006525380813096122
45.83740234375,-0.0028131287973766064
45.8251953125,9.179452270610299E-4
45.81298828125,0.00464333782123882
45.80078125,0.008339427922804392
45.78857421875,0.011981907897029633
45.7763671875,0.01554340567155844
45.76416015625,0.0190047189130141
45.751953125,0.02233971847214855
45.73974609375,0.02552654831747252
45.7275390625,0.028544963605114493
45.71533203125,0.03137498908376318
45.703125,0.0339969985265305
45.69091796875,0.03639294318794554
45.6787109375,0.03854716477439363
45.66650390625,0.04044594007977749
45.654296875,0.042075985311620684
45.64208984375,0.043427182551388305
45.629878997802734,0.04448983243978539
45.61767578125,0.045256444568244965
45.60546875,0.04572227463812425
45.59326171875,0.045884223331572466
45.5810546875,0.04574096480862677
45.56884765625,0.045293531174049835
45.556640625,0.044544679386860034
45.54443359375,0.04349906939348267
45.5322265625,0.04216372214330511
45.52001953125,0.04054786472862127
45.5078125,0.03866219663058995
45.49560546875,0.03651805741577492
45.483394622802734,0.03413054926105276
45.47119140625,0.03151551011516516
45.458984375,0.02869081773979792
45.44677734375,0.025673368607031094
45.4345703125,0.02248555497033409
45.42236328125,0.019145496518604147
45.41015625,0.01567903323469168
45.39794921875,0.012107380716030267
45.3857421875,0.008451346821127564
45.37353515625,0.004740986246231665
45.361328125,9.966155448307816E-4
45.34912109375,-0.002753923125539298
45.3369140625,-0.006489213598847519
45.32470703125,-0.010180308060619757
45.3125,-0.013806130070189724
45.30029296875,-0.01734106682146029
45.2880859375,-0.02076024668161412
45.27587890625,-0.02404358588197991
45.263671875,-0.027167824636931834
45.25146484375,-0.030112130370734472
45.2392578125,-0.03285582041298439
45.22705078125,-0.035382749383714926
45.21484375,-0.03767406256724458
45.20263671875,-0.039716258062880004
45.1904296875,-0.04149472629668694
45.17822265625,-0.04299756117074349
45.166015625,-0.04421468744665766
45.15380859375,-0.045137622684184114
45.1416015625,-0.045760874014390725
45.12939453125,-0.046079789420700894
45.1171875,-0.04609216380437863
45.10498046875,-0.045798007760405206
45.0927734375,-0.045198962819768124
45.08056640625,-0.04429898766744312
45.068359375,-0.04310451778239183
45.05615234375,-0.04162247797795927
45.0439453125,-0.03986306559095116
45.03173828125,-0.03783739679859525
45.01953125,-0.035560794200462056
45.00732421875,-0.0330460872111585
44.9951171875,-0.03031079457391023
44.98291015625,-0.02737305718646065
44.970703125,-0.0242536333390436
44.95849609375,-0.02096996428121594
44.9462890625,-0.017547999946972707
44.93408203125,-0.014007003817847846
44.921875,-0.010371831338957388
44.90966796875,-0.006666645926574821
44.8974609375,-0.002915182235130598
44.88525390625,8.543251540583661E-4
44.873046875,0.004620667695424252
44.86083984375,0.008357295828635038
44.8486328125,0.012038770510729505
44.83642578125,0.01564172299229415
44.82421875,0.019141579778572768
44.81201171875,0.022514510637774654
44.7998046875,0.025739084346545323
44.78759765625,0.02879326845764457
44.775390625,0.03165735402259946
44.76318359375,0.034309856567860716
44.7509765625,0.03673587096463166
44.73876953125,0.03891859330126298
44.7265625,0.04084238804067324
44.71435546875,0.042494699849139554
44.7021484375,0.043864972467973155
44.68994140625,0.044943731968760205
44.677734375,0.04572362211633973
44.66552734375,0.04619961331276173
44.6533203125,0.04636831335431626
44.64111328125,0.04622843427872585
44.62890625,0.045780992381665477
44.61669921875,0.045028741256149384
44.6044921875,0.043976360937269345
44.59228515625,0.042631274901729264
44.580078125,0.04100241123098231
44.56787109375,0.03910002445034782
44.5556640625,0.036936381381083856
44.54345703125,0.034527840091833864
44.53125,0.03188731306117898
44.51904296875,0.02903447390313251
44.5068359375,0.02598689117231636
44.49462890625,0.02276545833904534
44.482421875,0.019393756197409885
44.47021484375,0.015889914016315627
44.4580078125,0.012280190127169334
44.44580078125,0.008588329746318886
44.43359375,0.004836827071148758
44.42138671875,0.0010529917677445971
44.4091796875,-0.0027383103825525915
44.39697265625,-0.006513930400189795
44.384765625,-0.010246344461484756
44.37255859375,-0.013912478578426427
44.3603515625,-0.01748561827212805
44.34814453125,-0.020943957740315818
44.3359375,-0.0242646659154129
44.32373046875,-0.027423541895893265
44.3115234375,-0.03040200389032782
44.29931640625,-0.03317825347594169
44.287109375,-0.035735080455170334
44.27490234375,-0.038053845855607234
44.2626953125,-0.04012087655093294
44.25048828125,-0.041921377944151614
44.23828125,-0.04344295917919701
44.22607421875,-0.044675712524282596
44.2138671875,-0.04561192543946456
44.20166015625,-0.04624454897993288
44.189453125,-0.046569786257332144
44.17724609375,-0.046585076377604805
44.1650390625,-0.046290231192942684
44.15283203125,-0.04568742551423807
44.140625,-0.044779946650512575
44.12841796875,-0.04357474382026825
44.1162109375,-0.04207868895093176
44.10400390625,-0.04030207821964757
44.091796875,-0.03825751937928819
44.07958984375,-0.03595693555901396
44.0673828125,-0.033416326319312274
44.05517578125,-0.030652538499971245
44.04296875,-0.027685118694687177
44.03076171875,-0.024531423495005512
44.0185546875,-0.021213528840766542
44.00634765625,-0.017754867781775412
43.994140625,-0.014175697179009097
43.98193359375,-0.010501150463988947
43.9697265625,-0.0067571525993628265
43.95751953125,-0.002964152944104854
43.9453125,8.466486196730945E-4
43.93310546875,0.004655292169796522
43.9208984375,0.008431615816776638
43.90869140625,0.012154363198589119
43.896484375,0.01579723674084976
43.88427734375,0.019335961925866146
43.8720703125,0.022746950779012308
43.85986328125,0.026006205110567726
43.84765625,0.029094556200438847
43.83544921875,0.03199074585831032
43.8232421875,0.034673039093533656
43.81103515625,0.03712635246477613
43.798828125,0.039333186704801786
43.78662109375,0.04127849963265271
43.7744140625,0.04294987087137146
43.76220703125,0.044335773568630506
43.75,0.04542690089627414
43.73779296875,0.04621580708254201
43.7255859375,0.04669739989768086
43.71337890625,0.04686824050434503
43.701171875,0.04672710403931945
43.68896484375,0.04627493646855569
43.6767578125,0.045514520068216206
43.66455078125,0.04445087649557614
43.65234375,0.04309123505860451
43.64013671875,0.04144414193982803
43.6279296875,0.03952017739695356
43.61572265625,0.03733299224064492
43.603515625,0.034896645332486376
43.59130859375,0.0322277177043886
43.5791015625,0.029343083398470613
43.56689453125,0.0262627750224045
43.5546875,0.023006288060002048
43.54248046875,0.019594883327632404
43.5302734375,0.016052859973142843
43.51806640625,0.012402078403701378
43.505859375,0.008670045271462432
43.49365234375,0.004876863935654469
43.4814453125,0.0010525557165129956
43.46923828125,-0.002782264206280269
43.45703125,-0.006598729481159329
43.44482421875,-0.01037324090954159
43.4326171875,-0.014077407212617566
43.42041015625,-0.017691232338866682
43.408203125,-0.021187425748166858
43.39599609375,-0.02454434004662356
43.3837890625,-0.027737499577175116
43.37158203125,-0.030747411840889634
43.359375,-0.03355412313244565
43.34716796875,-0.03613716491681173
43.3349609375,-0.03848165109987087
43.32275390625,-0.0405693347294448
43.310546875,-0.04238786551231297
43.29833984375,-0.0439244996556907
43.2861328125,-0.045170098530378545
43.27392578125,-0.04611432573084942
43.26171875,-0.046751985280550405
43.24951171875,-0.04707861534148472
43.2373046875,-0.047091818925032745
43.22509765625,-0.04679142925419112
43.212890625,-0.04617947411263183
43.20068359375,-0.0452600706979588
43.1884765625,-0.044038639196821674
43.17626953125,-0.04252353149334344
43.1640625,-0.04072475537873919
43.15185546875,-0.03865560624833018
43.1396484375,-0.0363271657301958
43.12744140625,-0.03375609630937873
43.115234375,-0.03095945361117415
43.10302734375,-0.027957023545011592
43.0908203125,-0.024766376874316102
43.07861328125,-0.02141121070309911
43.06640625,-0.017909772935491466
43.05419921875,-0.014290844962843054
43.0419921875,-0.010575187373409765
43.02978515625,-0.006788654434561778
43.017578125,-0.0029543384798895907
